 BEGIN header
 Number of ions         2
 Number of branches     6
 Number of wavevectors  8
 Frequencies in         cm-1
 IR intensities in      (D/A)**2/amu
 Raman activities in    A**4 amu**(-1)
 Unit cell vectors (A)
    0.000000    2.399500    2.399500
    2.399500    0.000000    2.399500
    2.399500    2.399500    0.000000
 Fractional Co-ordinates
     1     0.500000    0.500000    0.500000   H         1.007940
     2     0.000000    0.000000    0.000000   Na       22.989770
 END header
     q-pt=    1   -0.250000 -0.250000 -0.250000      0.1250000000
       1      91.847109                                                         
       2      91.847109                                                         
       3     166.053018                                                         
       4     564.508299                                                         
       5     564.508299                                                         
       6     884.068976                                                         
                        Phonon Eigenvectors
Mode Ion                X                                   Y                                   Z
   1   1 -0.061613336996 -0.060761142686     -0.005526816216 -0.006379010526      0.067140153211  0.067140153211
   1   2  0.666530886823 -0.004641603630      0.064846864124  0.004641603630     -0.731377750947  0.000000000000
   2   1 -0.043088481348 -0.041294487960      0.074981829953  0.073187836565     -0.031893348605 -0.031893348605
   2   2  0.459604449490 -0.009771253020     -0.807028225834  0.009771253020      0.347423776344  0.000000000000
   3   1 -0.062303354995 -0.062303354995     -0.062303354995 -0.062303354995     -0.062303354995 -0.062303354995
   3   2  0.570587344099 -0.000000000000      0.570587344099 -0.000000000000      0.570587344099  0.000000000000
   4   1  0.286272749085  0.286272749085      0.286272749085  0.286272749085     -0.572545498170 -0.572545498170
   4   2  0.052559422840 -0.000000000000      0.052559422840  0.000000000000     -0.105118845679  0.000000000000
   5   1 -0.459591797004  0.529611084985      0.459591797004 -0.529611084985      0.000000000000 -0.000000000000
   5   2  0.006427739587  0.090808385909     -0.006427739587 -0.090808385909      0.000000000000  0.000000000000
   6   1 -0.403466180272 -0.403466180272     -0.403466180272 -0.403466180272     -0.403466180272 -0.403466180272
   6   2 -0.088110249616 -0.000000000000     -0.088110249616 -0.000000000000     -0.088110249616  0.000000000000
     q-pt=    2   -0.250000 -0.500000 -0.500000      0.3750000000
       1     132.031513                                                         
       2     154.825631                                                         
       3     206.213940                                                         
       4     642.513551                                                         
       5     690.303338                                                         
       6     832.120011                                                         
                        Phonon Eigenvectors
Mode Ion                X                                   Y                                   Z
   1   1  0.000000000000  0.000000000000      0.031866260273 -0.031866260273     -0.031866260273  0.031866260273
   1   2 -0.000000000000 -0.000000000000     -0.705669244698  0.000000000000      0.705669244698  0.000000000000
   2   1 -0.001780156891  0.001780156891     -0.012680513033  0.012680513033     -0.012680513033  0.012680513033
   2   2 -0.582237273385  0.000000000000      0.574608665929 -0.000000000000      0.574608665929  0.000000000000
   3   1 -0.021184502078  0.021184502078     -0.011544287510  0.011544287510     -0.011544287510  0.011544287510
   3   2  0.812686635458 -0.000000000000      0.411162853378  0.000000000000      0.411162853378  0.000000000000
   4   1  0.000000000000  0.000000000000     -0.498983508201  0.498983508201      0.498983508201 -0.498983508201
   4   2  0.000000000000  0.000000000000     -0.045065697460 -0.000000000000      0.045065697460  0.000000000000
   5   1  0.400389305548 -0.400389305548     -0.412005183792  0.412005183792     -0.412005183792  0.412005183792
   5   2  0.009657696420 -0.000000000000     -0.012050954709  0.000000000000     -0.012050954709  0.000000000000
   6   1 -0.582440084400  0.582440084400     -0.282767859813  0.282767859813     -0.282767859813  0.282767859813
   6   2 -0.021140457173  0.000000000000     -0.024995270201 -0.000000000000     -0.024995270201  0.000000000000
     q-pt=    3    0.000000 -0.250000 -0.250000      0.0937500000
       1     106.414367                                                         
       2     106.414367                                                         
       3     166.512415                                                         
       4     621.498613                                                         
       5     621.498613                                                         
       6     861.713910                                                         
                        Phonon Eigenvectors
Mode Ion                X                                   Y                                   Z
   1   1  0.000000000000  0.000000000000      0.000000000000 -0.122999650111     -0.000000000000  0.012460982266
   1   2  0.000000000000  0.000000000000      0.987274948957 -0.000000000000     -0.100019923792  0.000000000000
   2   1  0.000000000000  0.000000000000      0.000000000000 -0.012460982266      0.000000000000 -0.122999650111
   2   2  0.000000000000  0.000000000000      0.100019923792 -0.000000000000      0.987274948957  0.000000000000
   3   1  0.000000000000 -0.117723960164      0.000000000000  0.000000000000      0.000000000000  0.000000000000
   3   2  0.993046358033  0.000000000000      0.000000000000  0.000000000000      0.000000000000  0.000000000000
   4   1  0.000000000000  0.000000000000      0.000000000000  0.000000000000     -0.000000000000  0.992328478879
   4   2  0.000000000000  0.000000000000     -0.000000000000  0.000000000000      0.123629244140  0.000000000000
   5   1  0.000000000000  0.000000000000      0.000000000000  0.992328478879      0.000000000000  0.000000000000
   5   2  0.000000000000  0.000000000000      0.123629244140 -0.000000000000      0.000000000000  0.000000000000
   6   1  0.000000000000 -0.993046358033      0.000000000000  0.000000000000      0.000000000000  0.000000000000
   6   2 -0.117723960164  0.000000000000      0.000000000000  0.000000000000      0.000000000000  0.000000000000
     q-pt=    4    0.000000  0.000000  0.000000      0.0156250000    0.000000  0.250000  0.250000
       1      -0.040558              0.0000000                                  
       2      -0.040558              0.0000000                                  
       3       1.231032              0.0000000                                  
       4     530.573108             22.2668519                                  
       5     530.573108             22.2668519                                  
       6     890.673361             22.2670145                                  
                        Phonon Eigenvectors
Mode Ion                X                                   Y                                   Z
   1   1 -0.000000000000  0.000000000000     -0.058551697670  0.000000000000      0.193445985644  0.000000000000
   1   2 -0.000000000001  0.000000000000     -0.283719158385  0.000000000000      0.937365344198  0.000000000000
   2   1 -0.000000000001  0.000000000000     -0.193445985644  0.000000000000     -0.058551697670  0.000000000000
   2   2 -0.000000000002  0.000000000000     -0.937365344198  0.000000000000     -0.283719158385  0.000000000000
   3   1 -0.203938741932  0.000000000000      0.000000000001  0.000000000000      0.000000000000  0.000000000000
   3   2 -0.978983651314  0.000000000000      0.000000000003  0.000000000000      0.000000000000  0.000000000000
   4   1  0.000000000000  0.000000000000      0.000000000000  0.000000000000      0.979362215597  0.000000000000
   4   2  0.000000000000  0.000000000000      0.000000000000  0.000000000000     -0.202112965100  0.000000000000
   5   1  0.000000000000  0.000000000000     -0.979362215597  0.000000000000      0.000000000000  0.000000000000
   5   2  0.000000000000  0.000000000000      0.202112965100  0.000000000000      0.000000000000  0.000000000000
   6   1 -0.978983651314  0.000000000000     -0.000000000000  0.000000000000      0.000000000000  0.000000000000
   6   2  0.203938741932  0.000000000000      0.000000000000  0.000000000000      0.000000000000  0.000000000000
     q-pt=    4    0.000000  0.000000  0.000000      0.0156250000    0.000000 -0.500000 -0.500000
       1      -0.040558              0.0000000                                  
       2      -0.040558              0.0000000                                  
       3       1.231032              0.0000000                                  
       4     530.573108             22.2668519                                  
       5     530.573108             22.2668519                                  
       6     890.673361             22.2670145                                  
                        Phonon Eigenvectors
Mode Ion                X                                   Y                                   Z
   1   1 -0.000000000000  0.000000000000     -0.058551697670  0.000000000000      0.193445985644  0.000000000000
   1   2 -0.000000000001  0.000000000000     -0.283719158385  0.000000000000      0.937365344198  0.000000000000
   2   1 -0.000000000001  0.000000000000     -0.193445985644  0.000000000000     -0.058551697670  0.000000000000
   2   2 -0.000000000002  0.000000000000     -0.937365344198  0.000000000000     -0.283719158385  0.000000000000
   3   1 -0.203938741932  0.000000000000      0.000000000001  0.000000000000      0.000000000000  0.000000000000
   3   2 -0.978983651314  0.000000000000      0.000000000003  0.000000000000      0.000000000000  0.000000000000
   4   1  0.000000000000  0.000000000000      0.000000000000  0.000000000000      0.979362215597  0.000000000000
   4   2  0.000000000000  0.000000000000      0.000000000000  0.000000000000     -0.202112965100  0.000000000000
   5   1  0.000000000000  0.000000000000     -0.979362215597  0.000000000000      0.000000000000  0.000000000000
   5   2  0.000000000000  0.000000000000      0.202112965100  0.000000000000      0.000000000000  0.000000000000
   6   1 -0.978983651314  0.000000000000     -0.000000000000  0.000000000000      0.000000000000  0.000000000000
   6   2  0.203938741932  0.000000000000      0.000000000000  0.000000000000      0.000000000000  0.000000000000
     q-pt=    5    0.000000 -0.500000 -0.500000      0.0468750000
       1     139.375186                                                         
       2     139.375186                                                         
       3     207.564309                                                         
       4     686.675791                                                         
       5     686.675791                                                         
       6     833.291584                                                         
                        Phonon Eigenvectors
Mode Ion                X                                   Y                                   Z
   1   1 -0.000000000000 -0.000000000000     -0.081281885977 -0.000000000000     -0.001074204971 -0.000000000000
   1   2  0.000000000000 -0.000000000000      0.996603546151 -0.000000000000      0.013170910961  0.000000000000
   2   1  0.000000000000  0.000000000000      0.001074204971  0.000000000000     -0.081281885977 -0.000000000000
   2   2 -0.000000000000  0.000000000000     -0.013170910961  0.000000000000      0.996603546151  0.000000000000
   3   1 -0.013763444106 -0.000000000000      0.000000000000 -0.000000000000      0.000000000000  0.000000000000
   3   2  0.999905279317 -0.000000000000     -0.000000000000  0.000000000000      0.000000000000  0.000000000000
   4   1 -0.000000000000 -0.000000000000     -0.199442957289  0.000000000000     -0.976531928758 -0.000000000000
   4   2  0.000000000000  0.000000000000     -0.016266347612  0.000000000000     -0.079644867001  0.000000000000
   5   1 -0.000000000000 -0.000000000000     -0.976531928758  0.000000000000      0.199442957289  0.000000000000
   5   2  0.000000000000  0.000000000000     -0.079644867001  0.000000000000      0.016266347612  0.000000000000
   6   1  0.999905279317  0.000000000000     -0.000000000000 -0.000000000000      0.000000000000  0.000000000000
   6   2  0.013763444106 -0.000000000000     -0.000000000000  0.000000000000      0.000000000000  0.000000000000
     q-pt=    6    0.250000  0.000000 -0.250000      0.1875000000
       1     123.623059                                                         
       2     152.926351                                                         
       3     196.644517                                                         
       4     586.674239                                                         
       5     692.696132                                                         
       6     841.627250                                                         
                        Phonon Eigenvectors
Mode Ion                X                                   Y                                   Z
   1   1  0.018686864463  0.000000000000      0.000000000000  0.000000000000      0.018686864463  0.000000000000
   1   2  0.706859817147  0.000000000000      0.000000000000  0.000000000000      0.706859817147  0.000000000000
   2   1  0.000000000000  0.000000000000     -0.063366059748  0.000000000000      0.000000000000  0.000000000000
   2   2  0.000000000000  0.000000000000     -0.997990351893  0.000000000000      0.000000000000  0.000000000000
   3   1  0.057652138328  0.000000000000     -0.000000000000  0.000000000000     -0.057652138328  0.000000000000
   3   2  0.704752602653  0.000000000000     -0.000000000000  0.000000000000     -0.704752602653  0.000000000000
   4   1  0.706859817147  0.000000000000      0.000000000000  0.000000000000      0.706859817147  0.000000000000
   4   2 -0.018686864463  0.000000000000      0.000000000000  0.000000000000     -0.018686864463  0.000000000000
   5   1  0.000000000000  0.000000000000      0.997990351893  0.000000000000     -0.000000000000  0.000000000000
   5   2  0.000000000000  0.000000000000     -0.063366059748  0.000000000000      0.000000000000  0.000000000000
   6   1 -0.704752602653  0.000000000000      0.000000000000  0.000000000000      0.704752602653  0.000000000000
   6   2  0.057652138328  0.000000000000     -0.000000000000  0.000000000000     -0.057652138328  0.000000000000
     q-pt=    7    0.250000 -0.500000 -0.250000      0.0937500000
       1     154.308477                                                         
       2     181.239973                                                         
       3     181.239973                                                         
       4     688.507860                                                         
       5     761.918164                                                         
       6     761.918164                                                         
                        Phonon Eigenvectors
Mode Ion                X                                   Y                                   Z
   1   1  0.000000000000  0.000000000000      0.000000000000  0.000000000000     -0.000000000000 -0.000000000000
   1   2  0.000000000000  0.000000000000     -1.000000000000  0.000000000000      0.000000000000  0.000000000000
   2   1  0.000000000000  0.000000000000      0.000000000000  0.000000000000     -0.000000000000  0.020362579022
   2   2  0.000000000000  0.000000000000     -0.000000000000  0.000000000000     -0.999792661193  0.000000000000
   3   1 -0.020362579022  0.000000000000      0.000000000000 -0.000000000000      0.000000000000  0.000000000000
   3   2  0.000000000000  0.999792661193      0.000000000000  0.000000000000      0.000000000000  0.000000000000
   4   1 -0.000000000000  0.000000000000     -0.000000000000  1.000000000000      0.000000000000  0.000000000000
   4   2  0.000000000000  0.000000000000      0.000000000000  0.000000000000      0.000000000000  0.000000000000
   5   1  0.000000000000  0.000000000000      0.000000000000  0.000000000000     -0.000000000000  0.999792661193
   5   2  0.000000000000  0.000000000000     -0.000000000000  0.000000000000      0.020362579022  0.000000000000
   6   1 -0.999792661193  0.000000000000      0.000000000000 -0.000000000000      0.000000000000  0.000000000000
   6   2 -0.000000000000 -0.020362579022      0.000000000000  0.000000000000      0.000000000000  0.000000000000
     q-pt=    8   -0.500000 -0.500000 -0.500000      0.0625000000
       1     124.976823                                                         
       2     124.976823                                                         
       3     238.903818                                                         
       4     593.189877                                                         
       5     593.189877                                                         
       6     873.903056                                                         
                        Phonon Eigenvectors
Mode Ion                X                                   Y                                   Z
   1   1  0.000000000000  0.000000000000     -0.000000000000  0.000000000000      0.000000000000  0.000000000000
   1   2 -0.707106781187 -0.000000000000      0.707106781187  0.000000000000      0.000000000000  0.000000000000
   2   1  0.000000000000  0.000000000000      0.000000000000  0.000000000000      0.000000000000 -0.000000000000
   2   2  0.408248290464  0.000000000000      0.408248290464  0.000000000000     -0.816496580928  0.000000000000
   3   1  0.000000000000  0.000000000000      0.000000000000  0.000000000000      0.000000000000 -0.000000000000
   3   2  0.577350269190  0.000000000000      0.577350269190  0.000000000000      0.577350269190  0.000000000000
   4   1  0.000000000000 -0.408248290464      0.000000000000 -0.408248290464     -0.000000000000  0.816496580928
   4   2 -0.000000000000  0.000000000000      0.000000000000 -0.000000000000      0.000000000000  0.000000000000
   5   1 -0.543087248071  0.452831360423      0.543087248071 -0.452831360423      0.000000000000  0.000000000000
   5   2  0.000000000000  0.000000000000      0.000000000000  0.000000000000      0.000000000000  0.000000000000
   6   1 -0.000000000000  0.577350269190     -0.000000000000  0.577350269190     -0.000000000000  0.577350269190
   6   2  0.000000000000  0.000000000000     -0.000000000000 -0.000000000000      0.000000000000  0.000000000000
