 BEGIN header
 Number of ions         2
 Number of branches     6
 Number of wavevectors  8
 Frequencies in         cm-1
 IR intensities in      (D/A)**2/amu
 Raman activities in    A**4 amu**(-1)
 Unit cell vectors (A)
    0.000000    2.693500    2.693500
    2.693500    0.000000    2.693500
    2.693500    2.693500    0.000000
 Fractional Co-ordinates
     1     0.250000    0.250000    0.250000   S        32.066000
     2     0.000000    0.000000    0.000000   Zn       65.390000
 END header
     q-pt=    1    0.000000  0.000000  0.000000      0.1250000000    1.000000  0.000000  0.000000
       1      -0.024453              0.0000000                                  
       2      -0.018054              0.0000000                                  
       3       0.209155              0.0000000                                  
       4     269.976730              5.2292993                                  
       5     270.766613              3.1455048                                  
       6     336.275608              5.0767654                                  
                        Phonon Eigenvectors
Mode Ion                X                                   Y                                   Z
   1   1 -0.434754638489  0.000000000000     -0.225642705501  0.000000000000     -0.296498367366  0.000000000000
   1   2 -0.622530830941  0.000000000000     -0.323080101483  0.000000000000     -0.424543407050  0.000000000000
   2   1  0.037056607970  0.000000000000      0.427171677376  0.000000000000     -0.379413725307  0.000000000000
   2   2  0.053062859163  0.000000000000      0.611701526007  0.000000000000     -0.543324918405  0.000000000000
   3   1  0.370959625487  0.000000000000     -0.307494005142  0.000000000000     -0.309962444169  0.000000000000
   3   2  0.530701296358  0.000000000000     -0.439883683233  0.000000000000     -0.443416458348  0.000000000000
   4   1 -0.000001173692  0.000000000000     -0.579741055048  0.000000000000      0.579738729234  0.000000000000
   4   2  0.000000840966  0.000000000000      0.404847597272  0.000000000000     -0.404847795967  0.000000000000
   5   1 -0.631745820997  0.000000000000     -0.369497931905  0.000000000000     -0.369500899172  0.000000000000
   5   2  0.441194588500  0.000000000000      0.258054898343  0.000000000000      0.258055393280  0.000000000000
   6   1  0.522399642063  0.000000000000     -0.446574463794  0.000000000000     -0.446575097537  0.000000000000
   6   2 -0.365161836215  0.000000000000      0.312168109767  0.000000000000      0.312167341559  0.000000000000
     q-pt=    1    0.000000  0.000000  0.000000      0.1250000000
       1      -0.024801              0.0000000                                  
       2      -0.020250              0.0000000                                  
       3      -0.014319              0.0000000                                  
       4     269.976725              5.2292989                                  
       5     269.976743              5.2292979                                  
       6     270.823678              2.9929676                                  
                        Phonon Eigenvectors
Mode Ion                X                                   Y                                   Z
   1   1 -0.333703092367  0.000000000000     -0.329779392125  0.000000000000     -0.328219018331  0.000000000000
   1   2 -0.477823876030  0.000000000000     -0.472203145865  0.000000000000     -0.469966602230  0.000000000000
   2   1  0.295450663679  0.000000000000     -0.462187377335  0.000000000000      0.163997292902  0.000000000000
   2   2  0.423082770657  0.000000000000     -0.661850365310  0.000000000000      0.234843957974  0.000000000000
   3   1 -0.359397952995  0.000000000000     -0.073782999335 -0.000000000000      0.439536544249 -0.000000000000
   3   2 -0.514654811890  0.000000000000     -0.105653834504 -0.000000000000      0.629415997982 -0.000000000000
   4   1  0.357278779385  0.000000000000      0.311620492712  0.000000000000     -0.668910548864  0.000000000000
   4   2 -0.249496668605  0.000000000000     -0.217611164799  0.000000000000      0.467118842749  0.000000000000
   5   1  0.566103983858  0.000000000000     -0.592476450243  0.000000000000      0.026354905358  0.000000000000
   5   2 -0.395324469325  0.000000000000      0.413742902945  0.000000000000     -0.018404579510  0.000000000000
   6   1 -0.473352317118  0.000000000000     -0.473337906997  0.000000000000     -0.473338025916  0.000000000000
   6   2  0.330583897937  0.000000000000      0.330571840069  0.000000000000      0.330569913752  0.000000000000
     q-pt=    1    0.000000  0.000000  0.000000      0.1250000000    0.500000  0.500000  0.000000
       1      -0.023278              0.0000000                                  
       2      -0.019470              0.0000000                                  
       3       0.206216              0.0000000                                  
       4     269.976743              5.2292978                                  
       5     270.633735              3.4997297                                  
       6     334.625762              4.7225415                                  
                        Phonon Eigenvectors
Mode Ion                X                                   Y                                   Z
   1   1 -0.319045480128  0.000000000000     -0.468780134875  0.000000000000     -0.079288308601  0.000000000000
   1   2 -0.456839044256  0.000000000000     -0.671255684313  0.000000000000     -0.113500770028  0.000000000000
   2   1  0.471906974049  0.000000000000     -0.323822217512  0.000000000000      0.015728253618  0.000000000000
   2   2  0.675760707173  0.000000000000     -0.463719949930  0.000000000000      0.022513906929  0.000000000000
   3   1  0.057734040904  0.000000000000      0.056600359532  0.000000000000     -0.567184470207  0.000000000000
   3   2  0.082620361362  0.000000000000      0.080996112418  0.000000000000     -0.811405239223  0.000000000000
   4   1  0.579731972056  0.000000000000     -0.579747782567  0.000000000000     -0.000001542228  0.000000000000
   4   2 -0.404841232894  0.000000000000      0.404854202559  0.000000000000      0.000000861139  0.000000000000
   5   1 -0.575612321544  0.000000000000     -0.575596554136  0.000000000000     -0.097607251142  0.000000000000
   5   2  0.401991369848  0.000000000000      0.401978074831  0.000000000000      0.068179561466  0.000000000000
   6   1  0.069006273895  0.000000000000      0.069006313973  0.000000000000     -0.813781658330  0.000000000000
   6   2 -0.048228050869  0.000000000000     -0.048228063539  0.000000000000      0.568844253163  0.000000000000
     q-pt=    1    0.000000  0.000000  0.000000      0.1250000000    0.000000  0.000000  1.000000
       1      -0.024318              0.0000000                                  
       2      -0.019568              0.0000000                                  
       3       0.209231              0.0000000                                  
       4     269.976743              5.2292978                                  
       5     270.766602              3.1455061                                  
       6     336.275584              5.0767655                                  
                        Phonon Eigenvectors
Mode Ion                X                                   Y                                   Z
   1   1 -0.296429782827  0.000000000000     -0.224645213416  0.000000000000     -0.435317330033  0.000000000000
   1   2 -0.424449232369  0.000000000000     -0.321652649409  0.000000000000     -0.623333904409  0.000000000000
   2   1  0.379825369014  0.000000000000     -0.426681473645  0.000000000000     -0.038460345721  0.000000000000
   2   2  0.543910294899  0.000000000000     -0.611003280616  0.000000000000     -0.055072616501  0.000000000000
   3   1  0.309524366559  0.000000000000      0.308902507113  0.000000000000     -0.370154573697  0.000000000000
   3   2  0.442787963062  0.000000000000      0.441895072668  0.000000000000     -0.529553645720  0.000000000000
   4   1  0.579735360568  0.000000000000     -0.579744394058  0.000000000000     -0.000009277459  0.000000000000
   4   2 -0.404843599159  0.000000000000      0.404851836307  0.000000000000      0.000006262879  0.000000000000
   5   1 -0.369505974391  0.000000000000     -0.369490408658  0.000000000000     -0.631747471589  0.000000000000
   5   2  0.258063009470  0.000000000000      0.258050502101  0.000000000000      0.441192391649  0.000000000000
   6   1  0.446574726121  0.000000000000      0.446575821899  0.000000000000     -0.522398648167  0.000000000000
   6   2 -0.312167268264  0.000000000000     -0.312167003318  0.000000000000      0.365163059937  0.000000000000
     q-pt=    2    0.000000  0.000000 -0.500000      0.1250000000
       1      69.452433                                                         
       2      70.766501                                                         
       3     189.877693                                                         
       4     282.488326                                                         
       5     283.241131                                                         
       6     327.442680                                                         
                        Phonon Eigenvectors
Mode Ion                X                                   Y                                   Z
   1   1  0.348095389864  0.000000000000     -0.347993031270  0.000000000000      0.000101448922  0.000000000000
   1   2  0.615606511232  0.000000000000     -0.615434017207  0.000000000000      0.000182331931  0.000000000000
   2   1 -0.206168311561  0.000000000000     -0.206342600536  0.000000000000     -0.404949297045  0.000000000000
   2   2 -0.351053614573  0.000000000000     -0.351364876856  0.000000000000     -0.710096830258  0.000000000000
   3   1 -0.097239004145  0.000000000000     -0.097248341680  0.000000000000      0.099640515170  0.000000000000
   3   2  0.570905276452  0.000000000000      0.570903413370  0.000000000000     -0.565062440596  0.000000000000
   4   1 -0.615539916268  0.000000000000      0.615500650233  0.000000000000     -0.000028525959  0.000000000000
   4   2  0.348056332763  0.000000000000     -0.348032109378  0.000000000000      0.000017177325  0.000000000000
   5   1  0.369172132990  0.000000000000      0.369227895401  0.000000000000      0.691667575436  0.000000000000
   5   2 -0.200592600977  0.000000000000     -0.200626547594  0.000000000000     -0.410475650198  0.000000000000
   6   1  0.558293247890  0.000000000000      0.558297458577  0.000000000000     -0.589647172930  0.000000000000
   6   2  0.102354999878  0.000000000000      0.102350503775  0.000000000000     -0.089312020130  0.000000000000
     q-pt=    3    0.000000 -0.500000  0.000000      0.1250000000
       1      69.452429                                                         
       2      70.767451                                                         
       3     189.880113                                                         
       4     282.488357                                                         
       5     283.241567                                                         
       6     327.442849                                                         
                        Phonon Eigenvectors
Mode Ion                X                                   Y                                   Z
   1   1  0.348079928596  0.000000000000      0.000069694416  0.000000000000     -0.348008266144  0.000000000000
   1   2  0.615577841468  0.000000000000      0.000131567399  0.000000000000     -0.615462841227  0.000000000000
   2   1  0.206195044258  0.000000000000      0.404951594797  0.000000000000      0.206317179552  0.000000000000
   2   2  0.351100830345  0.000000000000      0.710094481901  0.000000000000      0.351319035524  0.000000000000
   3   1 -0.097237783239  0.000000000000      0.099642993062  0.000000000000     -0.097253489821  0.000000000000
   3   2  0.570905487686  0.000000000000     -0.565064349583  0.000000000000      0.570900211177  0.000000000000
   4   1  0.615599145484  0.000000000000      0.000141292097  0.000000000000     -0.615441530230  0.000000000000
   4   2 -0.348090305932  0.000000000000     -0.000081727592  0.000000000000      0.347997883932  0.000000000000
   5   1  0.369072816259 -0.000000000000      0.691665843953  0.000000000000      0.369327201474 -0.000000000000
   5   2 -0.200537523826  0.000000000000     -0.410476738451  0.000000000000     -0.200685284929  0.000000000000
   6   1 -0.558293586674  0.000000000000      0.589647195612 -0.000000000000     -0.558295950150  0.000000000000
   6   2 -0.102356693033  0.000000000000      0.089313665284  0.000000000000     -0.102353624348  0.000000000000
     q-pt=    4    0.000000 -0.500000 -0.500000      0.1250000000
       1      86.612247                                                         
       2      90.706080                                                         
       3     205.553148                                                         
       4     301.888765                                                         
       5     302.445833                                                         
       6     316.785788                                                         
                        Phonon Eigenvectors
Mode Ion                X                                   Y                                   Z
   1   1  0.000001284491  0.000000000000      0.283796495876  0.000000000000     -0.283697409779  0.000000000000
   1   2 -0.000001583589  0.000000000000     -0.647569311243  0.000000000000      0.647788017599  0.000000000000
   2   1  0.007524888868  0.000000000000      0.285321691863  0.000000000000      0.285415703714  0.000000000000
   2   2 -0.006367729944  0.000000000000      0.647038684996  0.000000000000      0.646817730436  0.000000000000
   3   1  0.002316230696  0.000000000000     -0.005105375388  0.000000000000     -0.005103375887  0.000000000000
   3   2 -0.999964062691  0.000000000000     -0.002683254364  0.000000000000     -0.002683140959  0.000000000000
   4   1 -0.142725218220  0.000000000000     -0.639748523533  0.000000000000     -0.640278792116  0.000000000000
   4   2  0.004683712109  0.000000000000      0.283286579056  0.000000000000      0.283056856578  0.000000000000
   5   1 -0.000061511758  0.000000000000     -0.647939318728  0.000000000000      0.647417920415  0.000000000000
   5   2  0.000003219647  0.000000000000     -0.283630166386  0.000000000000      0.283863700556  0.000000000000
   6   1  0.989731033878  0.000000000000     -0.094453597638  0.000000000000     -0.094449542109  0.000000000000
   6   2  0.003064012188  0.000000000000      0.035921723824  0.000000000000      0.035923864684  0.000000000000
     q-pt=    5   -0.500000  0.000000  0.000000      0.1250000000
       1      69.447963                                                         
       2      70.763660                                                         
       3     189.877987                                                         
       4     282.487972                                                         
       5     283.241212                                                         
       6     327.442830                                                         
                        Phonon Eigenvectors
Mode Ion                X                                   Y                                   Z
   1   1  0.000359813050  0.000000000000      0.348224336232  0.000000000000     -0.347858189329  0.000000000000
   1   2  0.000637774760  0.000000000000      0.615832039796  0.000000000000     -0.615211227393  0.000000000000
   2   1  0.404948699408  0.000000000000      0.205944155760  0.000000000000      0.206564707117  0.000000000000
   2   2  0.710093760121  0.000000000000      0.350663512710  0.000000000000      0.351762036071  0.000000000000
   3   1  0.099638431357  0.000000000000     -0.097240740787  0.000000000000     -0.097251789361  0.000000000000
   3   2 -0.565066037100  0.000000000000      0.570903825585  0.000000000000      0.570900785113  0.000000000000
   4   1  0.000109059734  0.000000000000      0.615584821826  0.000000000000     -0.615458919475  0.000000000000
   4   2 -0.000064114197  0.000000000000     -0.348076948936  0.000000000000      0.348005843616  0.000000000000
   5   1  0.691669061760  0.000000000000      0.369100145871 -0.000000000000      0.369298602078 -0.000000000000
   5   2 -0.410475173621  0.000000000000     -0.200550689211  0.000000000000     -0.200666605898  0.000000000000
   6   1  0.589646081551 -0.000000000000     -0.558293349549  0.000000000000     -0.558297995965  0.000000000000
   6   2  0.089313753292  0.000000000000     -0.102355655553  0.000000000000     -0.102351137324  0.000000000000
     q-pt=    6   -0.500000  0.000000 -0.500000      0.1250000000
       1      86.605898                                                         
       2      90.701942                                                         
       3     205.550523                                                         
       4     301.888415                                                         
       5     302.445420                                                         
       6     316.785703                                                         
                        Phonon Eigenvectors
Mode Ion                X                                   Y                                   Z
   1   1 -0.283661483055  0.000000000000      0.000001768997  0.000000000000      0.283824472080  0.000000000000
   1   2  0.647869979801  0.000000000000      0.000009928693  0.000000000000     -0.647490788544  0.000000000000
   2   1 -0.285450662749  0.000000000000     -0.007522387372  0.000000000000     -0.285281271526  0.000000000000
   2   2 -0.646741207819  0.000000000000      0.006379546750  0.000000000000     -0.647117485804  0.000000000000
   3   1  0.005092221714  0.000000000000     -0.002316584018  0.000000000000      0.005103454702  0.000000000000
   3   2  0.002683673442  0.000000000000      0.999964063712  0.000000000000      0.002706778074  0.000000000000
   4   1  0.639624662723  0.000000000000      0.142707238396  0.000000000000      0.640408646572  0.000000000000
   4   2 -0.283338950903  0.000000000000     -0.004668574435  0.000000000000     -0.282999900451  0.000000000000
   5   1  0.648068148302  0.000000000000      0.000064423745  0.000000000000     -0.647292437197  0.000000000000
   5   2  0.283569256300  0.000000000000      0.000010962578  0.000000000000     -0.283916622469  0.000000000000
   6   1  0.094425194928  0.000000000000     -0.989733644514  0.000000000000      0.094453618556  0.000000000000
   6   2 -0.035925103483  0.000000000000     -0.003062166117  0.000000000000     -0.035912664900  0.000000000000
     q-pt=    7   -0.500000 -0.500000  0.000000      0.1250000000
       1      86.612113                                                         
       2      90.705740                                                         
       3     205.553124                                                         
       4     301.888842                                                         
       5     302.445786                                                         
       6     316.785701                                                         
                        Phonon Eigenvectors
Mode Ion                X                                   Y                                   Z
   1   1 -0.283776054350  0.000000000000      0.283717779750  0.000000000000     -0.000000839259  0.000000000000
   1   2  0.647614493078  0.000000000000     -0.647742881694  0.000000000000      0.000001006752  0.000000000000
   2   1  0.285340956737  0.000000000000      0.285396024317  0.000000000000      0.007520639028  0.000000000000
   2   2  0.646993146065  0.000000000000      0.646863335648  0.000000000000     -0.006386050415  0.000000000000
   3   1  0.005090346084  0.000000000000      0.005091988802  0.000000000000     -0.002317281742  0.000000000000
   3   2  0.002702541584  0.000000000000      0.002703824679  0.000000000000      0.999964087272  0.000000000000
   4   1  0.639857460772  0.000000000000      0.640176412110  0.000000000000      0.142695086635  0.000000000000
   4   2 -0.283241271319  0.000000000000     -0.283103183754  0.000000000000     -0.004655436823  0.000000000000
   5   1 -0.647835456434  0.000000000000      0.647521885571  0.000000000000     -0.000036935492  0.000000000000
   5   2 -0.283676634545  0.000000000000      0.283817185423  0.000000000000     -0.000000297122  0.000000000000
   6   1  0.094432139884  0.000000000000      0.094429717208  0.000000000000     -0.989735409632  0.000000000000
   6   2 -0.035916330596  0.000000000000     -0.035917490842  0.000000000000     -0.003060953082  0.000000000000
     q-pt=    8   -0.500000 -0.500000 -0.500000      0.1250000000
       1      69.536802                                                         
       2      69.537330                                                         
       3     189.868759                                                         
       4     286.251690                                                         
       5     286.251782                                                         
       6     325.371990                                                         
                        Phonon Eigenvectors
Mode Ion                X                                   Y                                   Z
   1   1  0.040550318588  0.000000000000     -0.365257121913  0.000000000000      0.324705201998  0.000000000000
   1   2 -0.072062623602  0.000000000000      0.649105203618  0.000000000000     -0.577043197053  0.000000000000
   2   1 -0.398350353181  0.000000000000      0.164056451953  0.000000000000      0.234292008877  0.000000000000
   2   2  0.707916766361  0.000000000000     -0.291551027895  0.000000000000     -0.416367123230  0.000000000000
   3   1 -0.100744911468  0.000000000000     -0.100745042273  0.000000000000     -0.100742060099  0.000000000000
   3   2 -0.568494098578  0.000000000000     -0.568493371616  0.000000000000     -0.568490706088  0.000000000000
   4   1  0.641193432498  0.000000000000     -0.053379783658  0.000000000000     -0.587819188114  0.000000000000
   4   2  0.360803759413  0.000000000000     -0.030038104802  0.000000000000     -0.330769621271  0.000000000000
   5   1  0.308559702085 -0.000000000000     -0.709569442067  0.000000000000      0.401013054227 -0.000000000000
   5   2  0.173628472686  0.000000000000     -0.399279661663  0.000000000000      0.225653612266  0.000000000000
   6   1 -0.568493643734  0.000000000000     -0.568493586158  0.000000000000     -0.568490946386  0.000000000000
   6   2  0.100742695676 -0.000000000000      0.100743154802  0.000000000000      0.100746163383 -0.000000000000
