 BEGIN header
 Number of ions         2
 Number of branches     6
 Number of wavevectors  28
 Frequencies in         cm-1
 IR intensities in      (D/A)**2/amu
 Raman activities in    A**4 amu**(-1)
 Unit cell vectors (A)
    2.695464    2.695464    0.000000
    2.695464    0.000000    2.695464
    0.000000    2.695464    2.695464
 Fractional Co-ordinates
     1     0.000000    0.000000    0.000000   Si       28.085500
     2     0.250000    0.250000    0.250000   Si       28.085500
 END header
     q-pt=    1   -0.416667 -0.416667 -0.416667      0.0092592593
       1      54.566877                                                         
       2      54.566877                                                         
       3     265.362749                                                         
       4     388.003440                                                         
       5     466.890259                                                         
       6     466.890259                                                         
                        Phonon Eigenvectors
Mode Ion                X                                   Y                                   Z
   1   1  0.222902515297 -0.090842114245      0.260910251642 -0.215142832575     -0.483812766939  0.305984946820
   1   2 -0.236944481642 -0.042369017758     -0.335507770632  0.042369017758      0.572452252274  0.000000000000
   2   1 -0.176676233755  0.494146760298      0.113251328858 -0.454033998754      0.063424904897 -0.040112761544
   2   2  0.413448784133 -0.323195939310     -0.338403782968  0.323195939310     -0.075045001165  0.000000000000
   3   1  0.316757693050  0.257548501374      0.316757693050  0.257548501374      0.316757693050  0.257548501374
   3   2  0.408248290464 -0.000000000000      0.408248290464  0.000000000000      0.408248290464  0.000000000000
   4   1 -0.316757693050 -0.257548501374     -0.316757693050 -0.257548501374     -0.316757693050 -0.257548501374
   4   2  0.408248290464 -0.000000000000      0.408248290464 -0.000000000000      0.408248290464 -0.000000000000
   5   1  0.434288633241 -0.198567743909     -0.470280257602  0.221330465397      0.035991624360 -0.022762721487
   5   2  0.473180295444  0.064313092655     -0.515765956336 -0.064313092655      0.042585660892  0.000000000000
   6   1 -0.276763450907  0.169409443927     -0.209859724651  0.138352931664      0.486623175558 -0.307762375591
   6   2 -0.324461000763 -0.004756725098     -0.251316555955  0.004756725098      0.575777556718  0.000000000000
     q-pt=    2   -0.416667 -0.416667 -0.250000      0.0277777778
       1      40.381933                                                         
       2      82.432950                                                         
       3     240.506465                                                         
       4     410.703685                                                         
       5     461.869690                                                         
       6     466.874148                                                         
                        Phonon Eigenvectors
Mode Ion                X                                   Y                                   Z
   1   1  0.000000000000 -0.000000000000     -0.407679611427  0.289477692450      0.407679611427 -0.289477692450
   1   2 -0.000000000000  0.000000000000      0.500000000000  0.000000000000     -0.500000000000  0.000000000000
   2   1  0.090780996477 -0.420566098266      0.135855079582  0.372806761186      0.135855079582  0.372806761186
   2   2 -0.364064623014  0.229290171183      0.396788966371  0.000000000000      0.396788966371  0.000000000000
   3   1 -0.389766281963 -0.394842081843     -0.305292388915 -0.053735883689     -0.305292388915 -0.053735883689
   3   2 -0.452311104174  0.321298442559     -0.309985464055 -0.000000000000     -0.309985464055  0.000000000000
   4   1  0.331631077845  0.348908474028      0.333562751765  0.151253902807      0.333562751765  0.151253902807
   4   2 -0.446121076092  0.180810067497     -0.366253808826  0.000000000000     -0.366253808826  0.000000000000
   5   1  0.000000000000 -0.000000000000     -0.407679611427  0.289477692450      0.407679611427 -0.289477692450
   5   2  0.000000000000 -0.000000000000     -0.500000000000 -0.000000000000      0.500000000000  0.000000000000
   6   1 -0.105569476419  0.514007523414     -0.078691192437 -0.325781171945     -0.078691192437 -0.325781171945
   6   2 -0.474851489809  0.223304077669      0.335150228646  0.000000000000      0.335150228646 -0.000000000000
     q-pt=    3   -0.416667 -0.416667  0.083333      0.0277777778
       1      15.840214                                                         
       2      48.810720                                                         
       3     356.000439                                                         
       4     401.042923                                                         
       5     452.715568                                                         
       6     453.919864                                                         
                        Phonon Eigenvectors
Mode Ion                X                                   Y                                   Z
   1   1  0.000000000000  0.000000000000      0.426291254170 -0.261296319565     -0.426291254170  0.261296319565
   1   2  0.000000000000 -0.000000000000     -0.500000000000  0.000000000000      0.500000000000  0.000000000000
   2   1  0.033821928476  0.078771978182      0.483265484759 -0.113048651227      0.483265484759 -0.113048651227
   2   2  0.014990380861 -0.084405188668      0.496311924402 -0.000000000000      0.496311924402  0.000000000000
   3   1  0.559102039213 -0.411357839602      0.069517237695  0.065285315625      0.069517237695  0.065285315625
   3   2 -0.125951673884 -0.682602767574     -0.095366759267 -0.000000000000     -0.095366759267  0.000000000000
   4   1 -0.676906530413 -0.070348915315      0.091101233118 -0.100622338093      0.091101233118 -0.100622338093
   4   2  0.402165276336 -0.549012305246     -0.135736102784  0.000000000000     -0.135736102784  0.000000000000
   5   1 -0.000000000000  0.000000000000     -0.426291254170  0.261296319565      0.426291254170 -0.261296319565
   5   2 -0.000000000000 -0.000000000000     -0.500000000000 -0.000000000000      0.500000000000  0.000000000000
   6   1 -0.116383568042 -0.184781315185     -0.464412511626  0.102354210315     -0.464412511626  0.102354210315
   6   2  0.073885505293 -0.205499881896      0.475557951594  0.000000000000      0.475557951594  0.000000000000
     q-pt=    4   -0.416667 -0.250000 -0.250000      0.0277777778
       1      46.100738                                                         
       2      93.971487                                                         
       3     201.677825                                                         
       4     424.750802                                                         
       5     462.515145                                                         
       6     470.797396                                                         
                        Phonon Eigenvectors
Mode Ion                X                                   Y                                   Z
   1   1 -0.095027037765 -0.490886811896      0.095027037765  0.490886811896      0.000000000000 -0.000000000000
   1   2 -0.491720114130  0.090616385713      0.491720114130 -0.090616385713     -0.000000000000  0.000000000000
   2   1 -0.166332485323  0.117250611689     -0.166332485323  0.117250611689      0.045723461467 -0.644267771847
   2   2  0.128731387796 -0.157614819771      0.128731387796 -0.157614819771     -0.645888223123  0.000000000000
   3   1  0.440060264980  0.105695217024      0.440060264980  0.105695217024      0.234859195487 -0.187595647237
   3   2  0.277872847493 -0.357227093517      0.277872847493 -0.357227093517      0.300584378448  0.000000000000
   4   1 -0.447268398046 -0.099915241209     -0.447268398046 -0.099915241209     -0.213659434222  0.185163429260
   4   2  0.272566259992 -0.368428703049      0.272566259992 -0.368428703049      0.282729286363  0.000000000000
   5   1 -0.176323551578  0.112424252325     -0.176323551578  0.112424252325      0.030118636137 -0.641587447706
   5   2 -0.120568795183  0.170857756570     -0.120568795183  0.170857756570      0.642294002226  0.000000000000
   6   1  0.079347476584 -0.493663830921     -0.079347476584  0.493663830921      0.000000000000 -0.000000000000
   6   2  0.492931614387  0.083776032002     -0.492931614387 -0.083776032002      0.000000000000  0.000000000000
     q-pt=    5   -0.416667 -0.250000 -0.083333      0.0555555556
       1      23.051385                                                         
       2      77.147438                                                         
       3     225.872796                                                         
       4     426.937386                                                         
       5     458.923560                                                         
       6     467.417969                                                         
                        Phonon Eigenvectors
Mode Ion                X                                   Y                                   Z
   1   1  0.217138869838  0.060611970256     -0.603248633243 -0.089148726457     -0.230672967841  0.155275475319
   1   2  0.146283867966 -0.171534631214     -0.450650964459  0.410816403240     -0.278065624140  0.000000000000
   2   1 -0.158863680803 -0.124458732422     -0.188189025180  0.217271281263     -0.180242446192 -0.586654154146
   2   2 -0.165626758207 -0.115305776614      0.152420767296 -0.243700284277     -0.613718531564  0.000000000000
   3   1 -0.467721488530  0.430129902894     -0.197411568246  0.084256946529      0.206182914397  0.087423802816
   3   2  0.262702253338  0.578586769886      0.148857302257  0.154635260794     -0.223951591840  0.000000000000
   4   1  0.341164854134 -0.365434688541      0.310830001155 -0.262318251558     -0.289289824571 -0.030810280684
   4   2  0.300545180674  0.399510404944      0.281301386846  0.293761271234     -0.290925894338  0.000000000000
   5   1 -0.111554237108  0.016168683981     -0.322310567898 -0.034119680495     -0.388686432296 -0.480800195939
   5   2  0.057557802066  0.096916838474      0.229163124049  0.229199732442      0.618260439512  0.000000000000
   6   1  0.154801187483 -0.466978564633     -0.221699020408  0.424059249093      0.161876084419 -0.052792456177
   6   2  0.291962065748  0.395967851772     -0.342255630996 -0.334421568447      0.170267172808 -0.000000000000
     q-pt=    6   -0.416667  0.083333  0.083333      0.0277777778
       1      51.952709                                                         
       2      84.841404                                                         
       3     288.622657                                                         
       4     369.174780                                                         
       5     461.550983                                                         
       6     465.742816                                                         
                        Phonon Eigenvectors
Mode Ion                X                                   Y                                   Z
   1   1 -0.323542395393 -0.381209021907      0.323542395393  0.381209021907     -0.000000000000  0.000000000000
   1   2 -0.106722530180 -0.488477534337      0.106722530180  0.488477534337     -0.000000000000  0.000000000000
   2   1 -0.311194099998  0.032917578831     -0.311194099998  0.032917578831     -0.514859820290  0.197658027188
   2   2 -0.302318336096  0.080801971074     -0.302318336096  0.080801971074     -0.551497352905  0.000000000000
   3   1 -0.243422169311  0.321438672792     -0.243422169311  0.321438672792      0.142592011078 -0.393081636076
   3   2  0.385180991620 -0.119217350134      0.385180991620 -0.119217350134     -0.418145494109  0.000000000000
   4   1  0.238725702982 -0.308471643899      0.238725702982 -0.308471643899     -0.171798472095  0.407671255153
   4   2  0.376968349334 -0.100197704338      0.376968349334 -0.100197704338     -0.442391870735  0.000000000000
   5   1 -0.311238037704  0.391319414144      0.311238037704 -0.391319414144      0.000000000000 -0.000000000000
   5   2  0.458512723852 -0.199414347692     -0.458512723852  0.199414347692     -0.000000000000  0.000000000000
   6   1 -0.294204437444  0.028222772485     -0.294204437444  0.028222772485     -0.526560929706  0.219152995670
   6   2  0.282463092321 -0.086990674066      0.282463092321 -0.086990674066      0.570345902241  0.000000000000
     q-pt=    7   -0.416667  0.083333  0.416667      0.0555555556
       1      79.035019                                                         
       2     118.384232                                                         
       3     339.835959                                                         
       4     377.141765                                                         
       5     438.624899                                                         
       6     444.059501                                                         
                        Phonon Eigenvectors
Mode Ion                X                                   Y                                   Z
   1   1  0.507587179871 -0.156314881540     -0.017191944660  0.060401724711      0.461335648004 -0.033858547101
   1   2  0.517667188105  0.118742451210     -0.021566967700 -0.058981329363      0.462576459984  0.000000000000
   2   1  0.498118056350  0.030216244214      0.009058854670 -0.157645595196     -0.448685691759 -0.157201571245
   2   2 -0.480091177410 -0.136187667757      0.043576701942 -0.151773738112      0.475427369838  0.000000000000
   3   1  0.119988474944  0.095007871578     -0.555233357712  0.300066581428     -0.154967002358 -0.232889380593
   3   2  0.145567882415  0.047262261797     -0.057770641527 -0.628479584222     -0.279736010219  0.000000000000
   4   1 -0.168229273557  0.107275493385     -0.573391783058  0.212018081992     -0.008209976073 -0.293928005404
   4   2 -0.102536533994  0.171158929533     -0.195925728619  0.579088000942      0.294042643282  0.000000000000
   5   1  0.454885608845 -0.142887393017      0.087843761925  0.165578871994      0.405137511011 -0.270911394362
   5   2 -0.457560185258  0.134076101838      0.019017179084  0.186470470208     -0.487369866142  0.000000000000
   6   1 -0.420185084191 -0.041954907059      0.150414342090  0.375913114584      0.393856412857 -0.051247076261
   6   2 -0.411259331784  0.095820046043      0.100653512103 -0.392178549291      0.397176455463  0.000000000000
     q-pt=    8   -0.416667  0.416667 -0.250000      0.0555555556
       1      63.692455                                                         
       2     135.546885                                                         
       3     292.004634                                                         
       4     385.022902                                                         
       5     458.439179                                                         
       6     461.263674                                                         
                        Phonon Eigenvectors
Mode Ion                X                                   Y                                   Z
   1   1 -0.165504472870  0.265267820728     -0.259722980886 -0.047569272382      0.370996661312 -0.441456529645
   1   2  0.309557927051  0.043961768091      0.130680506012 -0.229437285165     -0.576647544234  0.000000000000
   2   1  0.003631435589  0.256646134276     -0.448870543652 -0.281728297654     -0.263537972614  0.289502526361
   2   2 -0.187342689195 -0.175451253539     -0.093829810131  0.521585626133     -0.391489432525  0.000000000000
   3   1 -0.137725941275 -0.556530830448     -0.356930500069  0.024745976612     -0.130679812326 -0.161913684639
   3   2 -0.519574160451  0.242358601932     -0.204915819824 -0.293293798134     -0.208070311729  0.000000000000
   4   1  0.056550818812  0.502473380654      0.401258802664  0.068005194879      0.081723419282  0.268347640424
   4   2 -0.497152102576  0.092289112460     -0.181955011842 -0.364040803910     -0.280515905752  0.000000000000
   5   1 -0.026140338381 -0.230824781993      0.528424127675  0.183807688511      0.022788467121 -0.364005444230
   5   2 -0.228740453818 -0.040511752124      0.150431323542  0.538876369830     -0.364718079704  0.000000000000
   6   1  0.228514385675 -0.381845665074      0.185568095972  0.091255778315     -0.225497995309  0.456467504206
   6   2  0.443561164954 -0.035755130276      0.000373061471 -0.206792156872     -0.509128597002  0.000000000000
     q-pt=    9   -0.416667  0.416667  0.416667      0.0277777778
       1      54.427196                                                         
       2     123.435811                                                         
       3     285.522286                                                         
       4     367.908479                                                         
       5     458.061831                                                         
       6     459.938761                                                         
                        Phonon Eigenvectors
Mode Ion                X                                   Y                                   Z
   1   1 -0.274625094075 -0.417828981408      0.274625094075  0.417828981408      0.000000000000  0.000000000000
   1   2  0.440758626690  0.236075905163     -0.440758626690 -0.236075905163     -0.000000000000 -0.000000000000
   2   1  0.305113008922 -0.087685761989      0.305113008922 -0.087685761989     -0.524286018939 -0.153488397633
   2   2 -0.268185958357 -0.169879465530     -0.268185958357 -0.169879465530      0.546291605155  0.000000000000
   3   1  0.400197180676 -0.070944964034      0.400197180676 -0.070944964034      0.379919858903  0.158993578882
   3   2  0.341784737380  0.219941275428      0.341784737380  0.219941275428      0.411847128574  0.000000000000
   4   1  0.380842715427 -0.058777405457      0.380842715427 -0.058777405457      0.394139425484  0.218316739412
   4   2 -0.304669216744 -0.235950472885     -0.304669216744 -0.235950472885     -0.450564185692  0.000000000000
   5   1 -0.204866396149  0.456102795134      0.204866396149 -0.456102795134     -0.000000000000 -0.000000000000
   5   2  0.037683378933  0.498577940700     -0.037683378933 -0.498577940700     -0.000000000000  0.000000000000
   6   1  0.278810168818 -0.088290543471      0.278810168818 -0.088290543471     -0.536202125574 -0.203535303879
   6   2  0.229330335030  0.181488092551      0.229330335030  0.181488092551     -0.573532335091  0.000000000000
     q-pt=   10   -0.250000  0.250000  0.250000      0.0277777778
       1      55.799291                                                         
       2     132.930056                                                         
       3     295.758348                                                         
       4     388.797069                                                         
       5     450.225388                                                         
       6     460.692842                                                         
                        Phonon Eigenvectors
Mode Ion                X                                   Y                                   Z
   1   1  0.074218373820  0.494460951934     -0.074218373820 -0.494460951934     -0.000000000000  0.000000000000
   1   2 -0.487653622337  0.110426195358      0.487653622337 -0.110426195358     -0.000000000000  0.000000000000
   2   1  0.399238060578 -0.193682154650      0.399238060578 -0.193682154650      0.065055834416 -0.319311957685
   2   2  0.269485762649 -0.352535430523      0.269485762649 -0.352535430523      0.325871735368  0.000000000000
   3   1  0.129041202662  0.247577283307      0.129041202662  0.247577283307     -0.584138682016  0.053756058127
   3   2  0.105810507755 -0.258360754842      0.105810507755 -0.258360754842     -0.586606949850  0.000000000000
   4   1  0.202112961195  0.260166077203      0.202112961195  0.260166077203     -0.489780241667 -0.207468651254
   4   2 -0.287581220671  0.160726719394     -0.287581220671  0.160726719394      0.531909697580  0.000000000000
   5   1 -0.485889822984  0.117945241194      0.485889822984 -0.117945241194     -0.000000000000  0.000000000000
   5   2  0.153403228399  0.475885962723     -0.153403228399 -0.475885962723      0.000000000000  0.000000000000
   6   1  0.313475046905 -0.135452607653      0.313475046905 -0.135452607653      0.200079112883 -0.476172574477
   6   2 -0.246309181927  0.236528646997     -0.246309181927  0.236528646997     -0.516499730974  0.000000000000
     q-pt=   11   -0.250000  0.250000  0.416667      0.0555555556
       1     107.883444                                                         
       2     147.341610                                                         
       3     315.403665                                                         
       4     350.366293                                                         
       5     439.670629                                                         
       6     442.107571                                                         
                        Phonon Eigenvectors
Mode Ion                X                                   Y                                   Z
   1   1 -0.389785999483  0.410883970391      0.115894140790 -0.355664569610     -0.198259489304  0.002382107823
   1   2 -0.394694323426 -0.406171335243      0.120158813668  0.354246520721     -0.198273799420  0.000000000000
   2   1 -0.438247863260  0.239736431696     -0.163980744153  0.376160149687      0.204812165921  0.200327451168
   2   2  0.145666679816  0.477824198556     -0.145796688821  0.383574592738     -0.286494521764  0.000000000000
   3   1 -0.042694973295 -0.129332755701     -0.036947596409 -0.421806616777      0.547134493957 -0.052991284598
   3   2 -0.030028276842  0.132846245832      0.003887194338  0.423403869322      0.549694670450  0.000000000000
   4   1 -0.132527727816 -0.057867119211     -0.029287032029 -0.422081802475      0.544320975446  0.061576743485
   4   2  0.138192547013 -0.042603075896      0.076547125076 -0.416114546572     -0.547792861991  0.000000000000
   5   1  0.386017895062 -0.260527857478     -0.432470161734  0.133607001426      0.115914636886  0.254554405786
   5   2  0.077129445780 -0.459277289254      0.057630171010  0.448954379653     -0.279703679900  0.000000000000
   6   1  0.323502547545 -0.262118271933      0.316088294380 -0.169101486872     -0.110549369572 -0.431174938315
   6   2 -0.173561281779  0.378465808518     -0.085300253422  0.348182408333     -0.445121321152  0.000000000000
     q-pt=   12   -0.250000  0.416667  0.416667      0.0277777778
       1      60.990141                                                         
       2     149.896705                                                         
       3     323.556647                                                         
       4     370.374970                                                         
       5     444.366519                                                         
       6     452.148332                                                         
                        Phonon Eigenvectors
Mode Ion                X                                   Y                                   Z
   1   1 -0.249902456975 -0.433069003737      0.249902456975  0.433069003737     -0.000000000000 -0.000000000000
   1   2  0.425847753995  0.262018492510     -0.425847753995 -0.262018492510      0.000000000000  0.000000000000
   2   1 -0.282007211638  0.356995889691     -0.282007211638  0.356995889691      0.266572900389  0.122436201484
   2   2  0.107266795689  0.442117594328      0.107266795689  0.442117594328     -0.293345759567  0.000000000000
   3   1 -0.318188816899  0.047891709131     -0.318188816899  0.047891709131     -0.082948631866 -0.534830857810
   3   2 -0.001439998396 -0.321769584342     -0.001439998396 -0.321769584342     -0.541225019742  0.000000000000
   4   1 -0.241181550181 -0.017483365971     -0.241181550181 -0.017483365971     -0.309318181636 -0.536072612659
   4   2  0.135680427681  0.200162508422      0.135680427681  0.200162508422      0.618911612052  0.000000000000
   5   1 -0.493529036611  0.080181606503      0.493529036611 -0.080181606503      0.000000000000  0.000000000000
   5   2 -0.395945340064  0.305331439065      0.395945340064 -0.305331439065      0.000000000000  0.000000000000
   6   1 -0.216609530314  0.289990054086     -0.216609530314  0.289990054086      0.460708809721  0.160373166277
   6   2 -0.109234696072 -0.345082165963     -0.109234696072 -0.345082165963      0.487823902465  0.000000000000
     q-pt=   13   -0.083333  0.083333 -0.416667      0.0555555556
       1      51.670250                                                         
       2     107.984843                                                         
       3     266.089531                                                         
       4     385.220329                                                         
       5     457.490753                                                         
       6     464.285696                                                         
                        Phonon Eigenvectors
Mode Ion                X                                   Y                                   Z
   1   1 -0.584431016895  0.117682238248     -0.234538822634  0.003790055553     -0.269539344297  0.130065350203
   1   2 -0.577497986094  0.148002698509     -0.212878971092  0.098515823657     -0.299279891486  0.000000000000
   2   1  0.037982595118  0.186519502884      0.444747690600  0.034660699642     -0.489246350107 -0.159386116162
   2   2  0.093889961973 -0.165580426165      0.433609638437  0.104807222311     -0.514554103198  0.000000000000
   3   1 -0.254452647759  0.255019472591      0.175303406434 -0.438405961591      0.320078717985 -0.211748580810
   3   2  0.352922350818  0.072297272738     -0.388093037994 -0.268914234147     -0.383780988562  0.000000000000
   4   1  0.221031034492 -0.310614087904     -0.225918725583  0.399672549350     -0.328653088611  0.189404066113
   4   2  0.346601000331  0.158756342811     -0.395304446203 -0.233477647935     -0.379324073733  0.000000000000
   5   1 -0.501550789722  0.078630508125     -0.108318078375 -0.092707792398     -0.469736838438  0.035830298094
   5   2  0.506078411863  0.040256583619      0.100953310987 -0.100677553977      0.471101377250  0.000000000000
   6   1  0.184314306519  0.203800021030      0.525335920846  0.126338610161     -0.310216267958 -0.190579067021
   6   2 -0.263725602501  0.077168767940     -0.513747128808 -0.167341452695      0.364080367079 -0.000000000000
     q-pt=   14   -0.083333  0.083333 -0.250000      0.0555555556
       1      29.400176                                                         
       2      66.956546                                                         
       3     188.194409                                                         
       4     449.525958                                                         
       5     470.350130                                                         
       6     478.875298                                                         
                        Phonon Eigenvectors
Mode Ion                X                                   Y                                   Z
   1   1  0.603570408771 -0.154063193923      0.197899693388 -0.025612743150      0.215786338427 -0.159947644022
   1   2  0.576631366022 -0.235645865198      0.174238321638 -0.097269257874      0.268601922332  0.000000000000
   2   1 -0.105403764107 -0.218467574521     -0.231362360796  0.000309049425      0.564792255751  0.261998159791
   2   2 -0.187550506619  0.153827312503     -0.209749866234 -0.097640315032      0.622602062228  0.000000000000
   3   1 -0.017430789000  0.234769589008     -0.122687758132 -0.621357397025      0.134514295688 -0.159210587257
   3   2  0.190581645896  0.138199958668     -0.395453282011 -0.494726189503     -0.208427701708  0.000000000000
   4   1 -0.121950469245 -0.477294809768      0.106236005852  0.415265355409     -0.101525734848  0.251552913800
   4   2  0.396964543648  0.291721448417     -0.345324593227 -0.253933711142     -0.271268028484  0.000000000000
   5   1  0.317937931017 -0.085526643944      0.012616816505  0.094218027733      0.611122722902  0.095359645243
   5   2 -0.300950532066 -0.133521953449     -0.026991975217  0.091146333347     -0.618517941848  0.000000000000
   6   1  0.314745716458  0.218087628694      0.505758264983  0.238651864981     -0.154371530009 -0.129600214691
   6   2 -0.381284228117 -0.035347096165     -0.540799458246 -0.142415172009      0.201560871513  0.000000000000
     q-pt=   15   -0.083333  0.250000 -0.416667      0.0555555556
       1      75.501161                                                         
       2     163.011400                                                         
       3     294.832112                                                         
       4     359.091431                                                         
       5     445.610033                                                         
       6     448.811749                                                         
                        Phonon Eigenvectors
Mode Ion                X                                   Y                                   Z
   1   1  0.347641785602 -0.430437024002      0.301001316575 -0.309981519155     -0.029522060163 -0.079418325580
   1   2  0.282332938117 -0.475835007941      0.185677070703 -0.390146588109      0.084727932078  0.000000000000
   2   1  0.129788604434 -0.401442105204     -0.206952823364  0.292813941460      0.434414264456  0.068658034883
   2   2  0.065528365127  0.416781572332     -0.158704436837 -0.321531300404      0.439806410727  0.000000000000
   3   1 -0.246092289436  0.181736621204      0.303261423928 -0.314511177674      0.389117253738  0.253206193273
   3   2  0.107145288977  0.286547555315     -0.082645756364 -0.429015676963     -0.464247362371  0.000000000000
   4   1 -0.197450818791  0.152649408713      0.271120924756 -0.274825923446      0.479783764743  0.241832643019
   4   2 -0.107611519938 -0.225185320566      0.118405508478  0.367445206256      0.537285294923  0.000000000000
   5   1 -0.382221503955  0.333880283313     -0.403586309377  0.233975188111     -0.013803405526  0.156888006414
   5   2  0.366094877232 -0.351488068838      0.268446726949 -0.381526738983      0.157494065160  0.000000000000
   6   1  0.066346881491 -0.313079541039     -0.238847402893  0.264849379819      0.506776534171  0.116462701555
   6   2  0.005459845978 -0.319985777470      0.173460609788  0.311616258740     -0.519986554095  0.000000000000
     q-pt=   16   -0.083333  0.250000  0.250000      0.0277777778
       1      41.505433                                                         
       2      58.630450                                                         
       3     255.583648                                                         
       4     450.351488                                                         
       5     459.881534                                                         
       6     470.376056                                                         
                        Phonon Eigenvectors
Mode Ion                X                                   Y                                   Z
   1   1 -0.480967024149  0.136640849243      0.480967024149 -0.136640849242      0.000000000000  0.000000000000
   1   2 -0.198343931715 -0.458976780188      0.198343931715  0.458976780188     -0.000000000000  0.000000000000
   2   1 -0.374429329925  0.323151492341     -0.374429329925  0.323151492341     -0.004472677176  0.103593315123
   2   2 -0.339001786763  0.360141636973     -0.339001786763  0.360141636973     -0.103689824859  0.000000000000
   3   1  0.077153290025  0.031463530835      0.077153290025  0.031463530835     -0.558693967710  0.417104162741
   3   2  0.043001542812 -0.071368419137      0.043001542812 -0.071368419137     -0.697219357255  0.000000000000
   4   1  0.399193123224 -0.032665753075      0.399193123224 -0.032665753075     -0.392025730626  0.159597695534
   4   2 -0.382045053817  0.120265447688     -0.382045053817  0.120265447688      0.423267761462  0.000000000000
   5   1 -0.497831246417  0.046519351791      0.497831246417 -0.046519351791      0.000000000000 -0.000000000000
   5   2  0.111200448553  0.487477651017     -0.111200448553 -0.487477651017     -0.000000000000  0.000000000000
   6   1  0.270554910572 -0.121700637907      0.270554910572 -0.121700637907      0.393653987056 -0.411113766093
   6   2 -0.275018270704  0.111247272689     -0.275018270704  0.111247272689     -0.569190644860  0.000000000000
     q-pt=   17   -0.083333  0.416667 -0.250000      0.0555555556
       1      65.992541                                                         
       2     141.377128                                                         
       3     289.098262                                                         
       4     365.539155                                                         
       5     449.991125                                                         
       6     455.920635                                                         
                        Phonon Eigenvectors
Mode Ion                X                                   Y                                   Z
   1   1 -0.324334521784 -0.476010228039     -0.282104705310 -0.260310909506      0.024716703857  0.142357405729
   1   2 -0.524476007180 -0.238125045115     -0.304732107857 -0.233416316497      0.144487184260  0.000000000000
   2   1  0.031537368620 -0.323538496124      0.253851752110  0.358808890313      0.403885872640  0.194986937951
   2   2 -0.112261655685  0.305072261532      0.384601666610 -0.212758289750      0.448490472686  0.000000000000
   3   1  0.344134981315 -0.009800471256     -0.387087354850 -0.078153782267      0.337104168108 -0.334501436881
   3   2 -0.251184453271  0.235438537704      0.219722280025 -0.328126124574     -0.474900443705  0.000000000000
   4   1  0.304243812329 -0.036209352480     -0.380838925273 -0.109383894062      0.431982886233 -0.250024495142
   4   2  0.281457668141 -0.121066079444     -0.274817791103  0.285444048767      0.499120688982  0.000000000000
   5   1  0.224856801380  0.472228457465      0.222039847088  0.382504338660      0.045809650597 -0.169499014619
   5   2 -0.397206569509 -0.340275239042     -0.311325030124 -0.314146444205      0.175580295149  0.000000000000
   6   1  0.009220089748  0.276593492905     -0.202712214959 -0.331390059725     -0.475607545703 -0.215167093951
   6   2 -0.122408342638  0.248203883985      0.321285346895 -0.218374310872      0.522014765930  0.000000000000
     q-pt=   18    0.083333  0.083333 -0.083333      0.0277777778
       1     -25.449637                                                         
       2     -21.195245                                                         
       3      87.188189                                                         
       4     478.855372                                                         
       5     485.751115                                                         
       6     486.350004                                                         
                        Phonon Eigenvectors
Mode Ion                X                                   Y                                   Z
   1   1  0.000000000000 -0.000000000000      0.460171945552 -0.195555057534     -0.460171945552  0.195555057534
   1   2  0.000000000000  0.000000000000      0.500000000000 -0.000000000000     -0.500000000000  0.000000000000
   2   1 -0.359205090637  0.056570564150     -0.428186906976 -0.023274659190     -0.428186906976 -0.023274659190
   2   2 -0.355605174149 -0.075983458637     -0.428819002688  0.000000000000     -0.428819002688  0.000000000000
   3   1  0.598594214565  0.096985729187     -0.239515310960 -0.093657798006     -0.239515310960 -0.093657798006
   3   2  0.592808412961  0.127669302884     -0.257175751796  0.000000000000     -0.257175751796  0.000000000000
   4   1  0.542455752179  0.078796090318     -0.300928543157 -0.095960817278     -0.300928543157 -0.095960817278
   4   2 -0.540754369029 -0.089731707315      0.315858301362 -0.000000000000      0.315858301362  0.000000000000
   5   1  0.000000000000 -0.000000000000      0.460171945552 -0.195555057534     -0.460171945552  0.195555057534
   5   2 -0.000000000000 -0.000000000000     -0.500000000000  0.000000000000      0.500000000000 -0.000000000000
   6   1 -0.442321099566  0.062731066567     -0.387446065700 -0.009694083582     -0.387446065700 -0.009694083582
   6   2  0.440613642860  0.073775060550      0.387567322001 -0.000000000000      0.387567322001  0.000000000000
     q-pt=   19    0.083333  0.083333  0.083333      0.0092592593
       1      13.470008                                                         
       2      13.470008                                                         
       3      54.425072                                                         
       4     491.120631                                                         
       5     493.943439                                                         
       6     493.943439                                                         
                        Phonon Eigenvectors
Mode Ion                X                                   Y                                   Z
   1   1  0.129455866615 -0.079167200938      0.363518468495 -0.182531952823     -0.492974335110  0.261699153761
   1   2  0.151463399984 -0.009225268063      0.406667536407  0.009225268063     -0.558130936391  0.000000000000
   2   1 -0.507400049884  0.229896184409      0.376919029881 -0.160629348218      0.130481020003 -0.069266836191
   2   2 -0.555960651717 -0.034854267612      0.408233906755  0.034854267612      0.147726744962  0.000000000000
   3   1 -0.399787716653  0.082682817322     -0.399787716653  0.082682817322     -0.399787716653  0.082682817322
   3   2 -0.408248290464 -0.000000000000     -0.408248290464  0.000000000000     -0.408248290464  0.000000000000
   4   1  0.399787716653 -0.082682817322      0.399787716653 -0.082682817322      0.399787716653 -0.082682817322
   4   2 -0.408248290464 -0.000000000000     -0.408248290464  0.000000000000     -0.408248290464  0.000000000000
   5   1 -0.493545504157  0.276839097889      0.331079665063 -0.190592878608      0.162465839094 -0.086246219281
   5   2  0.565734317552 -0.013104683788     -0.381795308061  0.013104683788     -0.183939009491  0.000000000000
   6   1  0.103108248941 -0.049749085825      0.380269287551 -0.206855534817     -0.483377536493  0.256604620642
   6   2 -0.114397912683 -0.004404556039     -0.432867812646  0.004404556039      0.547265725330  0.000000000000
     q-pt=   20    0.083333  0.083333  0.250000      0.0277777778
       1      36.412627                                                         
       2      55.580923                                                         
       3     150.408562                                                         
       4     470.748194                                                         
       5     479.952412                                                         
       6     493.203082                                                         
                        Phonon Eigenvectors
Mode Ion                X                                   Y                                   Z
   1   1 -0.660957804893 -0.164063463980     -0.067167740014 -0.116608210132     -0.067167740014 -0.116608210132
   1   2 -0.472069353725 -0.490848821264     -0.134569610123  0.000000000000     -0.134569610123  0.000000000000
   2   1  0.000000000000 -0.000000000000      0.423255715689 -0.266185272201     -0.423255715689  0.266185272201
   2   2  0.000000000000 -0.000000000000      0.500000000000 -0.000000000000     -0.500000000000  0.000000000000
   3   1 -0.018194669958 -0.198860492575     -0.327183462332  0.350731679800     -0.327183462332  0.350731679800
   3   2  0.133001170240  0.148953785574     -0.479647505194  0.000000000000     -0.479647505194  0.000000000000
   4   1  0.123509210292 -0.326672217737     -0.237867144279  0.363915636155     -0.237867144279  0.363915636155
   4   2 -0.341016330266 -0.075346701057      0.434758977556  0.000000000000      0.434758977556  0.000000000000
   5   1  0.603959529867 -0.098005315315      0.249600310840  0.022662900415      0.249600310840  0.022662900415
   5   2 -0.592623170236 -0.152216732478     -0.250627058049 -0.000000000000     -0.250627058049  0.000000000000
   6   1 -0.000000000000  0.000000000000      0.423255715689 -0.266185272201     -0.423255715689  0.266185272201
   6   2  0.000000000000 -0.000000000000     -0.500000000000 -0.000000000000      0.500000000000  0.000000000000
     q-pt=   21    0.083333  0.083333  0.416667      0.0277777778
       1      67.132473                                                         
       2      70.029338                                                         
       3     243.714737                                                         
       4     413.069935                                                         
       5     466.639697                                                         
       6     478.684500                                                         
                        Phonon Eigenvectors
Mode Ion                X                                   Y                                   Z
   1   1 -0.621667759802  0.022543743489     -0.215747340555 -0.099817699181     -0.215747340555 -0.099817699181
   1   2 -0.554741979739 -0.281496642720     -0.237719347185  0.000000000000     -0.237719347185  0.000000000000
   2   1 -0.000000000000 -0.000000000000      0.418961612589 -0.272894058523     -0.418961612589  0.272894058523
   2   2 -0.000000000000 -0.000000000000      0.500000000000 -0.000000000000     -0.500000000000  0.000000000000
   3   1 -0.188622586053 -0.301231596638      0.020593833040  0.431759674645      0.020593833040  0.431759674645
   3   2  0.309876120944  0.174056727681     -0.432250532225  0.000000000000     -0.432250532225  0.000000000000
   4   1  0.162973826179  0.321000052537     -0.060587222227 -0.426061542067     -0.060587222227 -0.426061542067
   4   2  0.340747415996  0.116158082973     -0.430347823424  0.000000000000     -0.430347823424  0.000000000000
   5   1  0.595505927171 -0.049731380697      0.256112926213  0.076523913032      0.256112926213  0.076523913032
   5   2 -0.556343648271 -0.218133593357     -0.267300842197 -0.000000000000     -0.267300842197  0.000000000000
   6   1 -0.000000000000  0.000000000000     -0.418961612589  0.272894058523      0.418961612589 -0.272894058523
   6   2  0.000000000000  0.000000000000      0.500000000000 -0.000000000000     -0.500000000000  0.000000000000
     q-pt=   22    0.083333  0.250000 -0.250000      0.0555555556
       1      43.203396                                                         
       2     122.647899                                                         
       3     242.021254                                                         
       4     401.709978                                                         
       5     457.980313                                                         
       6     464.433946                                                         
                        Phonon Eigenvectors
Mode Ion                X                                   Y                                   Z
   1   1 -0.077965244622  0.396905587529     -0.088258040910  0.555852056249     -0.114126297690 -0.081250065683
   1   2 -0.166678708080  0.368552347779     -0.250477553808  0.504005937723      0.140094200443  0.000000000000
   2   1 -0.102046830897  0.216170399160     -0.037270630398 -0.269465818808     -0.580257035210  0.179325537846
   2   2 -0.161324894698 -0.176401461218      0.043955238451  0.268456447881     -0.607335060271  0.000000000000
   3   1 -0.176795361671 -0.496969016992      0.056637957693  0.327858765762     -0.238794168740  0.232472176139
   3   2 -0.219985995948 -0.479417318570      0.188117899306  0.274428286624      0.333265611342  0.000000000000
   4   1  0.127894250044  0.453072789442     -0.081960787747 -0.391215363406      0.267115909561 -0.217371037259
   4   2 -0.186774395069 -0.432142588822      0.183358293738  0.355171461988      0.344385070785  0.000000000000
   5   1  0.032315260708 -0.199973879775     -0.023392563006  0.288951271556      0.579443787596 -0.197916697152
   5   2 -0.095217856646 -0.178794262891      0.115534145537  0.265879503823     -0.612312111586  0.000000000000
   6   1  0.196988084554  0.446698274501      0.183193681779  0.470289111259     -0.071737832277  0.042169376445
   6   2 -0.056546836752 -0.484918662408     -0.080393677251 -0.498265621803     -0.083214018588  0.000000000000
     q-pt=   23    0.250000 -0.083333 -0.083333      0.0277777778
       1      39.208913                                                         
       2      71.358217                                                         
       3     209.895372                                                         
       4     434.621097                                                         
       5     470.720088                                                         
       6     479.213416                                                         
                        Phonon Eigenvectors
Mode Ion                X                                   Y                                   Z
   1   1 -0.172385906573  0.469343263737      0.172385906573 -0.469343263737     -0.000000000000 -0.000000000000
   1   2  0.040080094133  0.498390997164     -0.040080094133 -0.498390997164     -0.000000000000  0.000000000000
   2   1 -0.382655504359 -0.023892000564     -0.382655504359 -0.023892000564     -0.417794857906 -0.177356509024
   2   2 -0.361568205688 -0.127532330578     -0.361568205688 -0.127532330578     -0.453880903526  0.000000000000
   3   1  0.214983397302 -0.245672810376      0.214983397302 -0.245672810376     -0.481511476392  0.234522315261
   3   2  0.300852271221  0.126731613164      0.300852271221  0.126731613164     -0.535587544901  0.000000000000
   4   1 -0.254785702512  0.297698559667     -0.254785702512  0.297698559667      0.328784777401 -0.291239071698
   4   2  0.388116931627  0.053902078044      0.388116931627  0.053902078044     -0.439226168089  0.000000000000
   5   1  0.392743373327 -0.309439239120     -0.392743373327  0.309439239120     -0.000000000000 -0.000000000000
   5   2 -0.226995859257  0.445502951595      0.226995859257 -0.445502951595      0.000000000000  0.000000000000
   6   1 -0.304068420653 -0.020812384482     -0.304068420653 -0.020812384482     -0.540734508440 -0.147731756264
   6   2  0.298803599340  0.060059710355      0.298803599340  0.060059710355      0.560551942667  0.000000000000
     q-pt=   24    0.250000 -0.083333  0.416667      0.0555555556
       1      66.081849                                                         
       2     109.910192                                                         
       3     297.122682                                                         
       4     403.766679                                                         
       5     445.929755                                                         
       6     454.327568                                                         
                        Phonon Eigenvectors
Mode Ion                X                                   Y                                   Z
   1   1  0.563391162799  0.129747482020      0.095199541480 -0.014098191709      0.291846679222  0.267057658023
   1   2  0.503228341000  0.284614209458      0.060715445040  0.074668242520      0.395593575379  0.000000000000
   2   1  0.185812064035  0.379810540031     -0.142912281315  0.080221797788      0.097001135001 -0.533806288234
   2   2 -0.340469894933 -0.250723792456     -0.104480248078  0.126266918678      0.542548038011  0.000000000000
   3   1 -0.096914407836  0.048920735108      0.495956118864  0.434484479343      0.173622353331 -0.152710192934
   3   2  0.105080221802 -0.027272472489     -0.085452857303  0.653794343664     -0.231225268087  0.000000000000
   4   1 -0.266829828210 -0.228092904279      0.351946587302  0.390203161368      0.310773902339 -0.063797679935
   4   2 -0.215511205570  0.277091050882      0.266289988887 -0.453006124984      0.317254727845  0.000000000000
   5   1 -0.413303334527 -0.090080597233      0.006854126383  0.151847398775     -0.520030208905  0.165921095506
   5   2  0.366366081944 -0.211447521457      0.039626283959  0.146745934127      0.545858249097  0.000000000000
   6   1  0.115023585308  0.399748749402     -0.125676517067  0.462715345232     -0.184020674652 -0.251409677260
   6   2  0.390508794156 -0.143291205287      0.299151539478 -0.374711134186     -0.311561285334  0.000000000000
     q-pt=   25    0.250000  0.250000  0.083333      0.0277777778
       1     -35.738324                                                         
       2     -23.479998                                                         
       3     146.765160                                                         
       4     462.468848                                                         
       5     470.729700                                                         
       6     475.254921                                                         
                        Phonon Eigenvectors
Mode Ion                X                                   Y                                   Z
   1   1 -0.000000000000  0.000000000000      0.076546398758 -0.494105908523     -0.076546398758  0.494105908523
   1   2 -0.000000000000 -0.000000000000      0.500000000000 -0.000000000000     -0.500000000000  0.000000000000
   2   1  0.123961004209 -0.161107435139     -0.429034402239  0.212763985638     -0.429034402239  0.212763985638
   2   2  0.182632226772  0.089260326943     -0.478893549643  0.000000000000     -0.478893549643  0.000000000000
   3   1 -0.622271828515  0.266438004746     -0.144158070685 -0.010617494447     -0.144158070685 -0.010617494447
   3   2 -0.601020266020 -0.311425880057     -0.144548540400  0.000000000000     -0.144548540400  0.000000000000
   4   1 -0.407908659664  0.237984035686     -0.355727702344  0.109292560817     -0.355727702344  0.109292560817
   4   2  0.459813471739  0.107691443848      0.372138498498 -0.000000000000      0.372138498498  0.000000000000
   5   1 -0.000000000000  0.000000000000      0.076546398758 -0.494105908523     -0.076546398758  0.494105908523
   5   2  0.000000000000 -0.000000000000     -0.500000000000  0.000000000000      0.500000000000 -0.000000000000
   6   1  0.363367028528 -0.381320274245     -0.281545601150  0.178918137670     -0.281545601150  0.178918137670
   6   2 -0.511201001004 -0.126942055853      0.333586009170 -0.000000000000      0.333586009170  0.000000000000
     q-pt=   26    0.250000  0.250000  0.250000      0.0092592593
       1      38.193331                                                         
       2      38.193331                                                         
       3     163.437330                                                         
       4     453.982262                                                         
       5     480.991606                                                         
       6     480.991606                                                         
                        Phonon Eigenvectors
Mode Ion                X                                   Y                                   Z
   1   1  0.106893044936 -0.185461133230     -0.064762498910 -0.371495113880     -0.042130546026  0.556956247110
   1   2  0.192995600985  0.092599422220      0.365551840245 -0.092599422220     -0.558547441229  0.000000000000
   2   1 -0.322513087021 -0.428365132847      0.333536554354  0.282637399049     -0.011023467333  0.145727733797
   2   2  0.402818037858 -0.353905364066     -0.256673967743  0.353905364066     -0.146144070115  0.000000000000
   3   1 -0.340748313814  0.224849401377     -0.340748313814  0.224849401377     -0.340748313814  0.224849401377
   3   2 -0.408248290464  0.000000000000     -0.408248290464 -0.000000000000     -0.408248290464  0.000000000000
   4   1 -0.340748313814  0.224849401377     -0.340748313814  0.224849401377     -0.340748313814  0.224849401377
   4   2  0.408248290464 -0.000000000000      0.408248290464 -0.000000000000      0.408248290464  0.000000000000
   5   1  0.463110227041  0.202112774564     -0.466358941037 -0.159165513586      0.003248713996 -0.042947260978
   5   2  0.166605159758 -0.477036032993     -0.123535200759  0.477036032993     -0.043069958999  0.000000000000
   6   1 -0.056479510684  0.273537460277      0.013052035534  0.300563895206      0.043427475150 -0.574101355483
   6   2  0.277018384694  0.035686017476      0.298723147563 -0.035686017476     -0.575741532257  0.000000000000
     q-pt=   27    0.416667 -0.250000 -0.250000      0.0277777778
       1      55.908256                                                         
       2     154.145532                                                         
       3     267.601089                                                         
       4     376.601185                                                         
       5     454.348379                                                         
       6     456.022677                                                         
                        Phonon Eigenvectors
Mode Ion                X                                   Y                                   Z
   1   1 -0.388310180416  0.314984450069      0.388310180416 -0.314984450069      0.000000000000  0.000000000000
   1   2  0.311233833320  0.391322758087     -0.311233833320 -0.391322758087      0.000000000000  0.000000000000
   2   1 -0.298933604265 -0.090300620804     -0.298933604265 -0.090300620804     -0.079909400237 -0.546427931205
   2   2 -0.132606093371 -0.282720932860     -0.132606093371 -0.282720932860     -0.552239980667  0.000000000000
   3   1 -0.402955133728 -0.080104940844     -0.402955133728 -0.080104940844      0.099409905714  0.390561631442
   3   2  0.177024999407  0.370744913560      0.177024999407  0.370744913560     -0.403014537342  0.000000000000
   4   1 -0.381093096912 -0.087371128839     -0.381093096912 -0.087371128839      0.052319993215  0.437642882922
   4   2 -0.131990757341 -0.368027312363     -0.131990757341 -0.368027312363      0.440759202584  0.000000000000
   5   1  0.274226266738  0.075027653169      0.274226266738  0.075027653169      0.046634658682  0.579798948250
   5   2 -0.096771825519 -0.267328277394     -0.096771825519 -0.267328277394     -0.581671395018  0.000000000000
   6   1 -0.450963166379 -0.215944952637      0.450963166379  0.215944952637     -0.000000000000 -0.000000000000
   6   2  0.220273796419 -0.448864628380     -0.220273796419  0.448864628380      0.000000000000  0.000000000000
     q-pt=   28    0.416667  0.416667  0.083333      0.0277777778
       1     -14.407364                                                         
       2      40.027482                                                         
       3     293.790278                                                         
       4     428.707949                                                         
       5     453.261990                                                         
       6     456.564730                                                         
                        Phonon Eigenvectors
Mode Ion                X                                   Y                                   Z
   1   1 -0.000000000000 -0.000000000000     -0.411043965624 -0.284680273858      0.411043965624  0.284680273858
   1   2  0.000000000000  0.000000000000      0.500000000000  0.000000000000     -0.500000000000  0.000000000000
   2   1  0.015572518511 -0.097558483695     -0.463203254496  0.174821807815     -0.463203254496  0.174821807815
   2   2  0.049017964527  0.085775289141     -0.495095868962 -0.000000000000     -0.495095868962  0.000000000000
   3   1 -0.689362443064  0.106826961537     -0.035799316238 -0.073499116647     -0.035799316238 -0.073499116647
   3   2 -0.205825078866 -0.666534781184     -0.081753967433 -0.000000000000     -0.081753967433  0.000000000000
   4   1  0.475125140233 -0.401219886890      0.237256391749 -0.018675018491      0.237256391749 -0.018675018491
   4   2 -0.505143689759 -0.362699805919     -0.237990234550 -0.000000000000     -0.237990234550  0.000000000000
   5   1 -0.000000000000  0.000000000000      0.411043965624  0.284680273858     -0.411043965624 -0.284680273858
   5   2  0.000000000000  0.000000000000      0.500000000000 -0.000000000000     -0.500000000000  0.000000000000
   6   1  0.147203564318 -0.308572642085     -0.401652242747  0.173874936379     -0.401652242747  0.173874936379
   6   2 -0.257676114061 -0.224697541228      0.437672271916 -0.000000000000      0.437672271916  0.000000000000
