 BEGIN header
 Number of ions         2
 Number of branches     6
 Number of wavevectors  9
 Frequencies in         cm-1
 IR intensities in      (D/A)**2/amu
 Raman activities in    A**4 amu**(-1)
 Unit cell vectors (A)
    2.695464    2.695464    0.000000
    2.695464    0.000000    2.695464
    0.000000    2.695464    2.695464
 Fractional Co-ordinates
     1     0.000000    0.000000    0.000000   Si       28.085500
     2     0.250000    0.250000    0.250000   Si       28.085500
 END header
     q-pt=    1    0.000000  0.000000  0.000000      0.1111111111
       1      -0.032683                                                         
       2      -0.026685                                                         
       3      -0.018869                                                         
       4     492.120249                                                         
       5     497.713022                                                         
       6     497.713022                                                         
                        Phonon Eigenvectors
Mode Ion                X                                   Y                                   Z
   1   1 -0.707106781187  0.000000000000      0.000000010129  0.000000000000      0.000000000000  0.000000000000
   1   2 -0.707106781187  0.000000000000      0.000000010129  0.000000000000      0.000000000000  0.000000000000
   2   1 -0.000000000000  0.000000000000     -0.000000000000  0.000000000000     -0.707106781187  0.000000000000
   2   2 -0.000000000000  0.000000000000     -0.000000000000  0.000000000000     -0.707106781187  0.000000000000
   3   1 -0.000000010129  0.000000000000     -0.707106781187  0.000000000000      0.000000000000  0.000000000000
   3   2 -0.000000010129  0.000000000000     -0.707106781187  0.000000000000      0.000000000000  0.000000000000
   4   1  0.707106781187  0.000000000000      0.000000000000  0.000000000000      0.000000000000  0.000000000000
   4   2 -0.707106781187  0.000000000000     -0.000000000000  0.000000000000      0.000000000000  0.000000000000
   5   1  0.000000000000  0.000000000000     -0.707106781187  0.000000000000      0.000000000000  0.000000000000
   5   2 -0.000000000000  0.000000000000      0.707106781187  0.000000000000      0.000000000000  0.000000000000
   6   1  0.000000000000  0.000000000000      0.000000000000  0.000000000000     -0.707106781187  0.000000000000
   6   2  0.000000000000  0.000000000000      0.000000000000  0.000000000000      0.707106781187  0.000000000000
     q-pt=    2    0.000000  0.000000  0.500000      0.1111111111
       1      43.577696                                                         
       2      66.159880                                                         
       3     292.249696                                                         
       4     365.893247                                                         
       5     461.893467                                                         
       6     467.280276                                                         
                        Phonon Eigenvectors
Mode Ion                X                                   Y                                   Z
   1   1  0.592841573226 -0.000000000000      0.272524171142  0.000000000000      0.272524210298  0.000000000000
   1   2  0.592841573226  0.000000000000      0.272524171142 -0.000000000000      0.272524210298  0.000000000000
   2   1 -0.000000023658  0.000000000000     -0.500000010188  0.000000000000      0.499999989812 -0.000000000000
   2   2 -0.000000023658 -0.000000000000     -0.500000010188  0.000000000000      0.499999989812  0.000000000000
   3   1 -0.408262566820 -0.000000000000      0.408241152099  0.000000000000      0.408241152099  0.000000000000
   3   2  0.408262566820  0.000000000000     -0.408241152099  0.000000000000     -0.408241152099  0.000000000000
   4   1 -0.385407406591 -0.000000000000      0.419202297173  0.000000000000      0.419202296021  0.000000000000
   4   2 -0.385407406591  0.000000000000      0.419202297173  0.000000000000      0.419202296021  0.000000000000
   5   1 -0.577340174017  0.000000000000     -0.288685229503  0.000000000000     -0.288685229503  0.000000000000
   5   2  0.577340174017  0.000000000000      0.288685229503  0.000000000000      0.288685229503  0.000000000000
   6   1  0.000000000000  0.000000000000      0.500000000000 -0.000000000000     -0.500000000000  0.000000000000
   6   2 -0.000000000000  0.000000000000     -0.500000000000 -0.000000000000      0.500000000000  0.000000000000
     q-pt=    3   -0.250000  0.500000  0.500000      0.1111111111
       1      52.409979                                                         
       2     132.962688                                                         
       3     296.005726                                                         
       4     388.761074                                                         
       5     449.887437                                                         
       6     461.282739                                                         
                        Phonon Eigenvectors
Mode Ion                X                                   Y                                   Z
   1   1 -0.075120025826  0.503438780377      0.099287446029 -0.479513349160      0.030427289894  0.013766161444
   1   2  0.139078009030 -0.489643677863     -0.107197123562  0.477807310180      0.033396514357  0.000000000000
   2   1  0.180892724640 -0.398035305176      0.204156691707 -0.400874253070     -0.319379523447  0.066800572345
   2   2 -0.258549900670 -0.352570887706     -0.281902325162 -0.350586937309      0.326290662543  0.000000000000
   3   1  0.267163844422  0.118303689278      0.228376635443  0.140709405604     -0.056149083803  0.582683424583
   3   2  0.092132224692  0.277279526537      0.118155047866  0.240820283833      0.585382518440  0.000000000000
   4   1 -0.266991011999 -0.192837139708     -0.252591083010 -0.211800252589     -0.206500322927 -0.490128199024
   4   2  0.281371993315  0.171172907662      0.293256408127  0.150539965807      0.531853396010  0.000000000000
   5   1 -0.520920233297  0.093782038878      0.459515454292  0.024568253601      0.089653954382 -0.007152368187
   5   2 -0.526728420114 -0.052058925447      0.456106329768 -0.061033333217      0.089938800898  0.000000000000
   6   1 -0.047289661951  0.271146042077     -0.217420658645  0.343776683643      0.467508020563 -0.200563235477
   6   2 -0.150360140334 -0.230539186388     -0.335345704254 -0.230211662738      0.508713436736  0.000000000000
     q-pt=    4   -0.151515  0.575758  0.500000      0.1111111111
       1      69.671088                                                         
       2     102.824437                                                         
       3     314.737439                                                         
       4     408.697133                                                         
       5     448.859575                                                         
       6     461.988426                                                         
                        Phonon Eigenvectors
Mode Ion                X                                   Y                                   Z
   1   1  0.183028216464 -0.409239297256     -0.098088332394  0.524660870196     -0.071496714696 -0.094982838872
   1   2 -0.216889486139  0.392345614533      0.360188183641 -0.393896968803     -0.118884481294  0.000000000000
   2   1 -0.192830413786  0.471847371210     -0.031703553607  0.457878706599      0.170155594775 -0.023781044971
   2   2  0.256285170233  0.440614822398      0.094775795863  0.449083036628     -0.171809384299  0.000000000000
   3   1  0.251892897701  0.022419013077      0.076058176300  0.048247987609     -0.038661115271  0.653023705248
   3   2  0.007493018781  0.252777567694      0.043668634754  0.078776676936      0.654167135715  0.000000000000
   4   1 -0.313389721233 -0.076758883525     -0.105114230939 -0.316022007828     -0.103160484424 -0.523768994788
   4   2  0.135873139549  0.292649164570      0.330377978956  0.042063071668      0.533831476636  0.000000000000
   5   1 -0.550995484672 -0.090321094953      0.169651699145  0.361116651475      0.028911290598  0.167997851053
   5   2 -0.182461497646 -0.527694728227      0.384658087027  0.105948530336      0.170467418243  0.000000000000
   6   1  0.183739388361  0.160089301858     -0.085677882958  0.467859343150      0.207700062655 -0.413810188332
   6   2 -0.060655075268 -0.236029043232     -0.456578259892 -0.133301752410      0.463009922133  0.000000000000
     q-pt=    5    0.300000  0.000000  0.000000      0.1111111111
       1      26.512286                                                         
       2      52.649317                                                         
       3     196.650426                                                         
       4     436.298083                                                         
       5     473.279631                                                         
       6     478.986404                                                         
                        Phonon Eigenvectors
Mode Ion                X                                   Y                                   Z
   1   1  0.610916502826 -0.002294233832     -0.250122504820 -0.028750709502      0.250122548024  0.028750709939
   1   2  0.606658145428  0.072042567411     -0.251769479314  0.000000004500      0.251769522286  0.000000000000
   2   1 -0.000000027294  0.000000003611      0.497741408066 -0.047471044576      0.497741389066 -0.047471046271
   2   2 -0.000000027514 -0.000000001004      0.500000009377 -0.000000003491      0.499999990623  0.000000000000
   3   1  0.105979580307 -0.345501302725      0.184227932162 -0.388276524593     -0.184227929234  0.388276522501
   3   2  0.357577233575  0.052357842347      0.429765739140 -0.000000001749     -0.429765735995  0.000000000000
   4   1  0.146814180523 -0.384209038582      0.137041685447 -0.382928298832     -0.137041685800  0.382928298544
   4   2 -0.411210512028  0.008769477102     -0.406711821314 -0.000000000429      0.406711821162  0.000000000000
   5   1  0.571134720743 -0.028409211016     -0.293809922382  0.013219426969      0.293809922403 -0.013219426960
   5   2 -0.571834427104 -0.002709333390      0.294107163699  0.000000000010     -0.294107163720  0.000000000000
   6   1 -0.000000000015  0.000000000021     -0.497741398766  0.047471043689     -0.497741398705  0.047471043606
   6   2  0.000000000017  0.000000000020      0.500000000035  0.000000000077      0.499999999965 -0.000000000000
     q-pt=    6    0.000000  0.400000  0.000000      0.1111111111
       1      38.997580                                                         
       2      62.576307                                                         
       3     256.781196                                                         
       4     395.084513                                                         
       5     465.074377                                                         
       6     470.657671                                                         
                        Phonon Eigenvectors
Mode Ion                X                                   Y                                   Z
   1   1 -0.597719795793  0.004718078895     -0.266656791924 -0.015765071071      0.266656831600  0.015765071042
   1   2 -0.596399464256 -0.039986167440     -0.267122410413  0.000000002370      0.267122450019  0.000000000000
   2   1  0.000000024227 -0.000000001937      0.499065263479 -0.030559330725      0.499065243593 -0.030559331337
   2   2  0.000000024300  0.000000000453      0.500000009905 -0.000000001826      0.499999990095  0.000000000000
   3   1  0.102704048516  0.376301330956     -0.068307781195 -0.411410550224      0.068307782144  0.411410549002
   3   2 -0.388041398535 -0.039682317023      0.417042676242 -0.000000001137     -0.417042675192  0.000000000000
   4   1  0.086613321334  0.387171070732     -0.098275165003 -0.402045195779      0.098275164357  0.402045195371
   4   2  0.396664240950 -0.007796498914     -0.413882045401 -0.000000000530      0.413882044852  0.000000000000
   5   1  0.576978634186 -0.015821581350      0.288810487652 -0.003341982822     -0.288810487655  0.003341982819
   5   2 -0.577123077018 -0.009144436387     -0.288829822953 -0.000000000003      0.288829822956  0.000000000000
   6   1  0.000000000005 -0.000000000013     -0.499065253602  0.030559330120     -0.499065253585  0.030559330067
   6   2 -0.000000000006 -0.000000000013      0.500000000010  0.000000000052      0.499999999990  0.000000000000
     q-pt=    7    0.600000  0.000000  0.200000      0.1111111111
       1      52.820214                                                         
       2     138.549656                                                         
       3     284.390941                                                         
       4     368.232383                                                         
       5     455.391349                                                         
       6     458.871885                                                         
                        Phonon Eigenvectors
Mode Ion                X                                   Y                                   Z
   1   1 -0.511120596143  0.012776563727      0.002116525351  0.023884029334     -0.487850858812 -0.004371342698
   1   2 -0.510985600094 -0.017355716042      0.002330442444 -0.023864106411     -0.487870442926  0.000000000000
   2   1  0.043172410609  0.319361590947      0.307736115601 -0.435528957823     -0.031522246810 -0.332811771425
   2   2 -0.322009527252 -0.012866513456      0.404571114434 -0.347432300330      0.334301252231  0.000000000000
   3   1 -0.003808678224  0.410040724011     -0.288897143495  0.299259629230      0.015536137326 -0.398237167845
   3   2  0.409877519715  0.012178678472      0.310294126159 -0.277011625168     -0.398540102645  0.000000000000
   4   1 -0.018462312592 -0.373032233502      0.334335200587 -0.325160657502     -0.003652463512  0.378131294333
   4   2  0.372836508854  0.022064493721      0.328374765236 -0.331178944220     -0.378148933945  0.000000000000
   5   1  0.532085893122  0.053610325609     -0.259346525049 -0.065628259163      0.307207998853  0.219239805496
   5   2 -0.464247816110 -0.265449486548      0.249225391881  0.097233700420     -0.377416013006  0.000000000000
   6   1  0.157496591674  0.127672887305      0.415218898956 -0.283789175736      0.235147356237 -0.388145781889
   6   2  0.027589839454  0.200859013491     -0.457868286288  0.208085710049     -0.453818716167  0.000000000000
     q-pt=    8    2.000000  2.000000  0.500000      0.1111111111
       1      43.577696                                                         
       2      66.159880                                                         
       3     292.249696                                                         
       4     365.893247                                                         
       5     461.893467                                                         
       6     467.280276                                                         
                        Phonon Eigenvectors
Mode Ion                X                                   Y                                   Z
   1   1  0.592841573226  0.000000000000      0.272524171142 -0.000000000000      0.272524210298 -0.000000000000
   1   2  0.592841573226 -0.000000000000      0.272524171142  0.000000000000      0.272524210298  0.000000000000
   2   1 -0.000000023658 -0.000000000000     -0.500000010188 -0.000000000000      0.499999989812  0.000000000000
   2   2 -0.000000023658 -0.000000000000     -0.500000010188 -0.000000000000      0.499999989812  0.000000000000
   3   1 -0.408262566820  0.000000000000      0.408241152099 -0.000000000000      0.408241152099 -0.000000000000
   3   2  0.408262566820 -0.000000000000     -0.408241152099 -0.000000000000     -0.408241152099  0.000000000000
   4   1 -0.385407406591  0.000000000000      0.419202297173 -0.000000000000      0.419202296021 -0.000000000000
   4   2 -0.385407406591  0.000000000000      0.419202297173 -0.000000000000      0.419202296021  0.000000000000
   5   1 -0.577340174017 -0.000000000000     -0.288685229503  0.000000000000     -0.288685229503  0.000000000000
   5   2  0.577340174017 -0.000000000000      0.288685229503  0.000000000000      0.288685229503  0.000000000000
   6   1  0.000000000000 -0.000000000000      0.500000000000  0.000000000000     -0.500000000000 -0.000000000000
   6   2 -0.000000000000 -0.000000000000     -0.500000000000  0.000000000000      0.500000000000  0.000000000000
     q-pt=    9    1.750000  0.500000  2.500000      0.1111111111
       1      52.409979                                                         
       2     132.962688                                                         
       3     296.005726                                                         
       4     388.761074                                                         
       5     449.887437                                                         
       6     461.282739                                                         
                        Phonon Eigenvectors
Mode Ion                X                                   Y                                   Z
   1   1 -0.075120025826  0.503438780377      0.099287446029 -0.479513349160      0.030427289894  0.013766161444
   1   2  0.139078009030 -0.489643677863     -0.107197123562  0.477807310180      0.033396514357  0.000000000000
   2   1  0.180892724640 -0.398035305176      0.204156691707 -0.400874253070     -0.319379523447  0.066800572345
   2   2 -0.258549900670 -0.352570887706     -0.281902325162 -0.350586937309      0.326290662543  0.000000000000
   3   1  0.267163844422  0.118303689278      0.228376635443  0.140709405604     -0.056149083803  0.582683424583
   3   2  0.092132224692  0.277279526537      0.118155047866  0.240820283833      0.585382518440  0.000000000000
   4   1 -0.266991011999 -0.192837139708     -0.252591083010 -0.211800252589     -0.206500322927 -0.490128199024
   4   2  0.281371993315  0.171172907662      0.293256408127  0.150539965807      0.531853396010  0.000000000000
   5   1 -0.520920233297  0.093782038878      0.459515454292  0.024568253601      0.089653954382 -0.007152368187
   5   2 -0.526728420114 -0.052058925447      0.456106329768 -0.061033333217      0.089938800898  0.000000000000
   6   1 -0.047289661951  0.271146042077     -0.217420658645  0.343776683643      0.467508020563 -0.200563235477
   6   2 -0.150360140334 -0.230539186388     -0.335345704254 -0.230211662738      0.508713436736  0.000000000000
